#Wave	#Intensity
402	2434
404	2539
406	2578
408	2769
410	2976
412	3162
414	3264
416	2965
418	2787
420	2697
422	2801
424	2957
426	3263
428	3463
430	3819
432	3813
434	3688
436	3589
438	3403
440	3335
442	3245
444	3124
446	2915
448	2901
450	2858
452	2716
454	2620
456	2570
458	2533
460	2529
462	2400
464	2259
466	2239
468	2129
470	2099
472	2135
474	2237
476	2227
478	2346
480	2348
482	2438
484	2371
486	2376
488	2396
490	2374
492	2293
494	2190
496	2258
498	2374
500	2576
502	2704
504	2809
506	2858
508	2694
510	2574
512	2409
514	2231
516	2173
518	2182
520	2245
522	2279
524	2306
526	2238
528	2258
530	2195
532	2079
534	1980
536	1990
538	2006
540	2042
542	2115
544	2187
546	2232
548	2242
550	2293
552	2410
554	2537
556	2481
558	2386
560	2336
562	2357
564	2319
566	2228
568	2064
570	2089
572	2188
574	2195
576	2141
578	2077
580	2118
582	2112
584	2116
586	2079
588	2100
590	2045
592	2005
594	1972
596	1918
598	1915
600	1981
602	2016
604	2022
606	1951
608	1918
610	1962
612	1946
614	1935
616	2024
618	2070
620	2163
622	2202
624	2177
626	2104
628	2020
630	1983
632	2081
634	2118
636	2050
638	1943
640	2035
642	2008
644	1986
646	2054
648	2242
650	2498
652	2709
654	2875
656	2757
658	2752
660	2594
662	2313
664	2309
666	2207
668	2099
670	2118
672	2186
674	2069
676	2061
678	1969
680	1894
682	2050
684	2075
686	2070
688	2290
690	2441
692	2504
694	2756
696	2902
698	2891
700	2875
702	2880
704	2832
706	2794
708	2707
710	2719
712	2845
714	2897
716	2865
718	2701
720	2759
722	2648
724	2551
726	2494
728	2461
730	2393
732	2444
734	2356
736	2266
738	2408
740	2504
742	2577
744	2604
746	2488
748	2332
750	2257
752	2315
754	2406
756	2538
758	2824
760	3044
762	3291
764	3570
766	3729
768	4014
770	4261
772	4430
774	4575
776	4562
778	4414
780	4199
782	3909
784	3693
786	3537
788	3618
790	3693
792	3693
794	3721
796	3661
798	3517
800	3336
802	3363
804	3519
806	3845
808	4178
810	4423
812	4688
814	4847
816	4959
818	4956
820	4891
822	4664
824	4388
826	4222
828	4034
830	3853
832	3810
834	3722
836	3722
838	3561
840	3484
842	3390
844	3381
846	3514
848	3825
850	4257
852	4644
854	5036
856	5413
858	5499
860	5301
862	4904
864	4569
866	4128
868	3744
870	3414
872	3383
874	3638
876	3799
878	3991
880	4322
882	4623
884	4381
886	4015
888	3473
890	2925
892	2497
894	2168
896	1919
898	2071
900	2205
902	2438
904	2626
906	2681
908	2589
910	2433
912	2244
914	1999
916	1881
918	2001
920	2066
922	2017
924	1915
926	1859
928	1943
930	2107
932	2162
934	2479
936	2861
938	2917
940	2828
942	2702
944	2524
946	2429
948	2254
950	1910
952	1771
954	1797
956	1785
958	1642
960	1777
962	1831
964	1868
966	1961
968	1909
970	1817
972	1871
974	2116
976	2283
978	2488
980	2655
982	2630
984	2762
986	2800
988	2563
990	2393
992	2442
994	2536
996	2585
998	2823
1000	2842
1002	2875
1004	2962
1006	2760
1008	2644
1010	2619
1012	2662
1014	2716
1016	2765
1018	2578
1020	2468
1022	2335
1024	2167
1026	2331
1028	2250
1030	2164
1032	2202
1034	2080
1036	2006
1038	1978
1040	1736
1042	1729
1044	1621
1046	1438
1048	1054
1050	1138
1052	1157
1054	1131
1056	1308
1058	1376
1060	1503
1062	1457
1064	1452
1066	1448
1068	1481
1070	1352
1072	1175
1074	1134
1076	1151
1078	1172
1080	1200
1082	1289
1084	1281
1086	1212
1088	1367
1090	1514
1092	1490
1094	1508
1096	1375
1098	1262
1100	1157
1102	1077
1104	1175
1106	1224
1108	1341
1110	1526
1112	1631
1114	1706
1116	1840
1118	2070
1120	2131
1122	2104
1124	1806
1126	1735
1128	1689
1130	1555
1132	1693
1134	1741
1136	2008
1138	2079
1140	2077
1142	2078
1144	2255
1146	2392
1148	2548
1150	2598
1152	2645
1154	2732
1156	2691
1158	2480
1160	2293
1162	2144
1164	1960
1166	1874
1168	1665
1170	1416
1172	1489
1174	1531
1176	1292
1178	1286
1180	1134
1182	1259
1184	1439
1186	1349
1188	1317
1190	1557
1192	1696
1194	1603
1196	1641
1198	1501
1200	1471
1202	1646
1204	1695
1206	1899
1208	2207
1210	2448
1212	2490
1214	2534
1216	2337
1218	2024
1220	1810
1222	1555
1224	1440
1226	1250
1228	1210
1230	1023
1232	1112
1234	1167
1236	1256
1238	1226
1240	1560
1242	1919
1244	1798
1246	1867
1248	1635
1250	1508
1252	1568
1254	1761
1256	1863
1258	2264
1260	2524
1262	2975
1264	3486
1266	3721
1268	3889
1270	4189
1272	4142
1274	3915
1276	3378
1278	2963
1280	2612
1282	2254
1284	1673
1286	1677
1288	1829
1290	2014
1292	1929
1294	1978
1296	2196
1298	2236
1300	2207
1302	2415
1304	2907
1306	3125
1308	3130
1310	3113
1312	3217
1314	3127
1316	3098
1318	2856
1320	2860
1322	2900
1324	2813
1326	3046
1328	3237
1330	3460
1332	3631
1334	3770
1336	3819
1338	4063
1340	4281
1342	4639
1344	5091
1346	5284
1348	5222
1350	4904
1352	4664
1354	4443
1356	4162
1358	3708
1360	3596
1362	3409
1364	3485
1366	3562
1368	3578
1370	3691
1372	3615
1374	3625
1376	4081
1378	4257
1380	4254
1382	4240
1384	4526
1386	4526
1388	4262
1390	4242
1392	4234
1394	4227
1396	4099
1398	4075
1400	3914
1402	3937
1404	3855
1406	3745
1408	3984
1410	3869
1412	3735
1414	3559
1416	3600
1418	3550
1420	3489
1422	3601
1424	3913
1426	4322
1428	4616
1430	4836
1432	5339
1434	5961
1436	6523
1438	6914
1440	7447
1442	7864
1444	8006
1446	7728
1448	7720
1450	7971
1452	7833
1454	7655
1456	7554
1458	7272
1460	6853
1462	6533
1464	6029
1466	5539
1468	5189
1470	4360
1472	4006
1474	3979
1476	3816
1478	3890
1480	4204
1482	4124
1484	3769
1486	3343
1488	2832
1490	2579
1492	2311
1494	2271
1496	2292
1498	2276
1500	2268
1502	2008
1504	1875
1506	1867
1508	1922
1510	1756
1512	2031
1514	2301
1516	2284
1518	2319
1520	1960
1522	1760
1524	1681
1526	1879
1528	2173
1530	2429
1532	2873
1534	3028
1536	3161
1538	2654
1540	2279
1542	2339
1544	2047
1546	2316
1548	2460
1550	2628
1552	2739
1554	2739
1556	2760
1558	2938
1560	3024
1562	2830
1564	2940
1566	3074
1568	2781
1570	2884
1572	3059
1574	3036
1576	3577
1578	4056
1580	4198
1582	4344
1584	4410
1586	4924
1588	5290
1590	5620
1592	5499
1594	6100
1596	5968
1598	6066
1600	5989
1602	6089
1604	6799
1606	7027
1608	7402
1610	7438
1612	7900
1614	8368
1616	9544
1618	10360
1620	11353
1622	11807
1624	11658
1626	10765
1628	9486
1630	7954
1632	6600
1634	5768
1636	4804
1638	4591
1640	4612
1642	4378
1644	4865
1646	5059
1648	5274
1650	5232
1652	4994
1654	4905
1656	4645
1658	4567
1660	4633
1662	4923
1664	4913
1666	5153
1668	5048
1670	5148
1672	4945
1674	4927
1676	5324
1678	6151
1680	6761
1682	7870
1684	8717
1686	8958
1688	8944
1690	8413
1692	7250
1694	5967
1696	4958
1698	3779
1700	3539
1702	3003
1704	2966
1706	2849
1708	3181
1710	3371
1712	3161
1714	3353
1716	3058
1718	2770
1720	2139
1722	2054
1724	1442
1726	1831
1728	1765
1730	1503
1732	2161
1734	2237
1736	2707
1738	2522
1740	2990
1742	2643
1744	2910
1746	2641
1748	2225
1750	2025
1752	1719
1754	1908
1756	1426
1758	1376
1760	1655
1762	1739
1764	1751
1766	1962
1768	2316
1770	2323
1772	2355
1774	2193
1776	1916
1778	2048
1780	2042
1782	2477
1784	3663
1786	4753
1788	5013
1790	5364
1792	5004
1794	4091
1796	2818
1798	1994
1800	1325
1802	1216
1804	1334
1806	1596
1808	1730
1810	1831
1812	1753
1814	1600
1816	1637
1818	1268
1820	1362
1822	1615
1824	1724
1826	1495
1828	1325
1830	848
1832	269
1834	397
1836	0
1838	671
1840	1424
1842	1640
1844	2158
1846	2001
1848	2426
1850	2555
1852	2344
1854	1661
1856	2071
1858	2047
1860	1938
1862	1526
1864	1347
1866	1734
1868	1922
1870	2336
1872	2817
1874	3614
1876	4339
1878	4207
1880	3230
1882	3055
1884	2397
1886	1920
1888	1913
1890	1887
1892	2460
1894	2959
1896	2918
1898	2521
1900	2703
1902	2644
1904	2109
1906	2355
1908	2282
1910	3278
1912	3545
1914	3453
1916	3419
1918	3660
1920	3427
1922	2659
1924	2698
1926	2042
1928	2728
1930	2719
1932	3011
1934	3259
1936	3989
1938	3819
1940	3762
1942	3374
1944	3021
1946	3386
1948	2814
1950	2459
1952	2259
1954	2030
1956	1741
1958	2010
1960	1894
1962	2682
1964	3242
1966	3775
1968	4165
1970	4047
1972	3669
1974	3098
1976	2738
1978	1938
1980	1631
1982	1199
1984	1800
1986	1982
1988	2221
1990	2775
1992	2788
1994	3160
1996	3904
1998	3848
2000	3931
2002	4274
2004	4235
2006	3915
2008	3991
2010	3660
2012	3384
2014	3097
2016	2855
2018	2257
2020	1923
2022	1332
2024	1633
2026	2675
2028	3123
2030	3485
2032	3521
2034	3717
2036	3045
2038	3017
2040	2738
2042	3338
2044	3335
2046	4160
2048	4312
2050	4164
2052	3772
2054	3964
2056	4563
2058	4772
2060	4573
2062	4322
2064	4016
2066	3663
2068	2925
2070	2586
2072	3403
2074	4081
2076	4207
2078	3997
2080	3682
2082	3348
2084	3366
2086	3855
2088	5000
2090	5651
2092	5534
2094	5451
2096	4812
2098	4506
2100	4174
2102	3981
2104	3778
2106	3769
2108	3849
2110	3798
2112	3309
2114	3686
2116	4061
2118	4099
2120	4919
2122	5198
2124	5224
2126	5733
2128	5120
2130	3900
2132	4380
2134	4259
2136	3877
2138	3982
2140	3558
2142	3803
2144	3474
2146	2951
2148	2701
2150	3137
2152	3277
2154	3565
2156	3576
2158	3470
2160	4134
2162	4615
2164	4424
2166	4648
2168	4302
2170	3136
2172	3802
2174	3775
2176	4820
2178	6150
2180	7829
2182	7941
2184	7726
2186	6733
2188	5755
2190	5382
2192	3803
2194	4148
2196	4169
2198	4814
2200	4922
2202	4451
2204	4602
2206	4520
2208	4750
2210	3931
2212	3904
2214	3626
2216	3639
2218	3348
2220	3685
2222	4717
2224	4709
2226	5639
2228	5793
2230	5593
2232	5326
2234	4465
2236	4535
2238	4452
2240	4623
2242	4037
2244	5584
2246	6184
2248	5889
2250	6034
2252	5226
2254	4873
2256	4214
2258	3970
2260	3641
2262	4133
2264	4352
2266	4481
2268	4821
2270	4392
2272	3878
2274	3230
2276	2949
2278	2492
2280	2761
2282	3394
2284	4293
2286	4317
2288	4720
2290	4701
2292	4769
2294	4567
2296	4587
2298	4857