#Wave		#Intensity
3201.500977	855.644226
3200.796875	176.785995
3200.092773	159.078934
3199.387695	102.499191
3198.683594	162.555832
3197.978516	120.128456
3197.273438	176.627884
3196.568359	98.893906
3195.863281	137.720428
3195.158203	151.818420
3194.453125	127.081047
3193.747070	105.881912
3193.041992	109.391724
3192.335938	144.653473
3191.629883	130.517563
3190.923828	151.655411
3190.217773	116.365868
3189.511719	190.382782
3188.805664	169.198837
3188.098633	165.644180
3187.392578	123.329956
3186.685547	162.061768
3185.978516	98.628624
3185.271484	154.960068
3184.564453	197.186584
3183.857422	183.069016
3183.149414	126.717384
3182.442383	84.463120
3181.734375	126.671974
3181.026367	165.347672
3180.319336	151.248413
3179.611328	130.120667
3178.902344	186.355652
3178.194336	151.167099
3177.486328	161.684662
3176.777344	115.970375
3176.068359	140.544952
3175.360352	137.006760
3174.651367	87.809105
3173.942383	143.981110
3173.232422	133.421982
3172.523438	119.356148
3171.814453	115.824898
3171.104492	210.552963
3170.394531	203.498032
3169.684570	175.397873
3168.975586	147.307785
3168.264648	129.747864
3167.554688	129.724594
3166.844727	91.141464
3166.133789	129.678040
3165.423828	136.663147
3164.712891	101.603081
3164.001953	115.596550
3163.291016	168.110260
3162.580078	122.558403
3161.869141	122.536407
3161.157227	136.516068
3160.446289	160.990051
3159.734375	118.971283
3159.022461	104.955818
3158.310547	178.392868
3157.598633	108.415413
3156.886719	132.872452
3156.174805	199.272888
3155.461914	153.797058
3154.749023	108.337563
3154.037109	129.282898
3153.324219	160.701233
3152.611328	146.700867
3151.898438	185.089264
3151.185547	164.106277
3150.471680	97.747879
3149.758789	94.239952
3149.044922	132.610184
3148.331055	101.184326
3147.617188	188.378342
3146.903320	115.099411
3146.189453	97.642563
3145.475586	135.977692
3144.760742	118.523354
3144.046875	135.928833
3143.332031	132.419662
3142.617188	135.879974
3141.902344	163.723343
3141.187500	142.796829
3140.472656	132.324478
3139.757813	111.411110
3139.041992	139.238846
3138.327148	180.977951
3137.611328	149.627945
3136.895508	184.391968
3136.179688	173.923401
3135.463867	135.635864
3134.747070	156.474762
3134.031250	173.829590
3133.315430	184.226212
3132.598633	135.538300
3131.881836	149.412781
3131.165039	184.126816
3130.448242	152.832489
3129.731445	159.750671
3129.014648	163.194153
3128.296875	201.352280
3127.579102	138.838654
3126.862305	183.928116
3126.144531	131.849258
3125.426758	152.640076
3124.708984	114.459450
3123.990234	156.052979
3123.272461	107.483810
3122.554688	138.663818
3121.835938	124.774971
3121.117188	176.732712
3120.398438	166.306732
3119.679688	107.387085
3118.960938	162.783356
3118.242188	186.994003
3117.522461	145.413589
3116.803711	135.002594
3116.083984	159.205139
3115.364258	148.795395
3114.644531	172.986725
3113.924805	117.609787
3113.205078	134.881042
3112.484375	131.398880
3111.764648	162.490372
3111.043945	190.114044
3110.323242	183.167801
3109.602539	127.848816
3108.881836	172.737534
3108.161133	89.807327
3107.440430	183.035797
3106.719727	138.115326
3105.998047	124.281380
3105.276367	131.162262
3104.554688	144.942673
3103.833008	200.122849
3103.111328	172.488586
3102.389648	120.720238
3101.667969	141.389633
3100.945313	158.603668
3100.223633	193.047913
3099.500977	193.013092
3098.778320	120.611427
3098.055664	182.607224
3097.333008	120.567917
3096.609375	148.099579
3095.886719	141.185745
3095.163086	154.932022
3094.440430	137.692505
3093.716797	110.134125
3092.993164	189.258865
3092.269531	134.177521
3091.544922	134.153320
3090.821289	158.203552
3090.096680	178.806519
3089.373047	123.766792
3088.648438	113.432411
3087.923828	195.893341
3087.199219	188.985764
3086.474609	154.596802
3085.750000	164.873489
3085.024414	123.632790
3084.299805	175.114822
3083.574219	133.887161
3082.848633	144.160126
3082.123047	164.724686
3081.397461	133.814636
3080.671875	133.790466
3079.945313	171.495255
3079.219727	106.307846
3078.493164	154.289963
3077.766602	191.970596
3077.040039	164.516495
3076.313477	109.657852
3075.586914	126.768982
3074.860352	147.299484
3074.132813	157.547729
3073.406250	171.216583
3072.678711	133.524796
3071.951172	184.847061
3071.223633	191.658600
3070.496094	153.983536
3069.768555	167.640656
3069.040039	126.562920
3068.312500	160.740051
3067.583984	126.517159
3066.855469	160.681931
3066.126953	167.489166
3065.398438	174.293930
3064.669922	136.676392
3063.941406	150.316849
3063.211914	112.717247
3062.482422	170.752808
3061.753906	163.893051
3061.024414	150.208115
3060.294922	187.726181
3059.565430	146.741196
3058.834961	167.186447
3058.105469	126.219986
3057.375000	160.304489
3056.645508	167.095703
3055.915039	167.065475
3055.184570	173.852997
3054.454102	187.454590
3053.722656	119.267693
3052.992188	173.758606
3052.261719	78.347542
3051.530273	146.449326
3050.798828	139.612442
3050.067383	173.632813
3049.335938	156.581635
3048.604492	132.729950
3047.873047	149.719498
3047.140625	156.496582
3046.409180	159.869736
3045.676758	166.642502
3044.944336	112.208298
3044.211914	186.979965
3043.479492	135.960785
3042.746094	166.521790
3042.013672	139.309326
3041.281250	132.489731
3040.547852	180.017532
3039.814453	149.421432
3039.081055	145.999039
3038.347656	135.788437
3037.614258	176.492981
3036.879883	139.132706
3036.146484	193.393341
3035.412109	135.690018
3034.677734	156.015244
3033.944336	101.730621
3033.208984	162.739487
3032.474609	111.863113
3031.740234	169.458832
3031.004883	182.982361
3030.270508	189.725067
3029.535156	165.979324
3028.799805	176.109390
3028.064453	199.780182
3027.329102	213.285904
3026.593750	152.319443
3025.857422	155.676071
3025.122070	142.113235
3024.385742	182.683868
3023.649414	152.208939
3022.913086	172.472168
3022.176758	128.485352
3021.440430	135.223190
3020.704102	135.198654
3019.966797	135.174118
3019.230469	172.315720
3018.493164	219.578217
3017.755859	131.723022
3017.018555	216.121613
3016.281250	192.448364
3015.542969	145.153992
3014.805664	222.754044
3014.067383	188.969116
3013.329102	168.691788
3012.591797	161.914703
3011.853516	145.022247
3011.114258	182.087891
3010.375977	175.312042
3009.637695	182.021759
3008.898438	256.132233
3008.159180	175.216537
3007.419922	178.553635
3006.681641	161.679581
3005.941406	158.282486
3005.202148	168.355026
3004.462891	168.324448
3003.722656	232.245514
3002.983398	195.185394
3002.243164	154.774078
3001.502930	181.658279
3000.762695	195.078995
3000.021484	198.406342
2999.281250	144.574951
2998.541016	225.226990
2997.799805	252.073929
2997.058594	221.784729
2996.317383	178.067474
2995.576172	171.316788
2994.834961	272.041901
2994.093750	261.918640
2993.351563	224.940475
2992.610352	204.759308
2991.868164	224.858658
2991.125977	201.329330
2990.383789	305.293945
2989.641602	174.421951
2988.899414	224.695084
2988.156250	254.831635
2987.414063	214.556015
2986.670898	261.442566
2985.927734	264.746185
2985.184570	231.191940
2984.441406	247.899857
2983.698242	217.710236
2982.954102	274.599854
2982.210938	197.541977
2981.466797	291.237701
2980.722656	267.756012
2979.978516	281.092621
2979.234375	227.509750
2978.490234	284.335419
2977.746094	210.704330
2977.000977	300.951385
2976.255859	270.806915
2975.511719	297.499084
2974.766602	290.760742
2974.021484	327.463959
2973.275391	327.404297
2972.530273	287.261627
2971.785156	300.567871
2971.039063	307.191193
2970.292969	280.427795
2969.546875	370.497803
2968.800781	347.069824
2968.054688	303.630737
2967.308594	383.639252
2966.561523	326.867798
2965.815430	343.482086
2965.068359	363.424500
2964.321289	406.694580
2963.574219	359.959076
2962.827148	379.887512
2962.080078	349.832611
2961.332031	406.398071
2960.584961	476.264984
2959.836914	382.940460
2959.088867	429.480957
2958.340820	485.990570
2957.592773	492.558136
2956.844727	395.971130
2956.095703	402.552673
2955.347656	375.869049
2954.598633	395.754486
2953.849609	408.982513
2953.100586	388.961182
2952.351563	335.708649
2951.602539	388.819244
2950.853516	421.974640
2950.103516	445.151855
2949.353516	428.463501
2948.604492	418.422852
2947.854492	444.908142
2947.103516	504.579803
2946.353516	491.211731
2945.603516	550.853088
2944.852539	507.621307
2944.102539	474.356842
2943.351563	596.983521
2942.600586	563.714783
2941.849609	656.442017
2941.098633	603.286011
2940.346680	662.830627
2939.595703	689.217896
2938.843750	761.976746
2938.091797	781.711609
2937.339844	725.269348
2936.587891	721.825745
2935.835938	837.562134
2935.083984	774.520691
2934.331055	761.141907
2933.579102	837.103149
2932.826172	823.717712
2932.073242	770.647217
2931.320313	810.189087
2930.567383	737.302673
2929.814453	842.949829
2929.060547	803.134766
2928.307617	802.987976
2927.553711	888.741882
2926.799805	898.489197
2926.045898	865.298218
2925.291992	858.535889
2924.537109	864.981812
2923.783203	891.230469
2923.028320	900.968262
2922.274414	824.911621
2921.519531	927.031067
2920.764648	900.473938
2920.008789	936.585449
2919.253906	933.116882
2918.499023	952.725952
2917.743164	939.367554
2916.987305	1008.399536
2916.232422	1149.892334
2915.476563	1110.151245
2914.719727	1175.820435
2913.963867	1086.693848
2913.208008	1020.646851
2912.451172	1135.673218
2911.694336	1119.009399
2910.938477	1062.864258
2910.181641	1148.209717
2909.423828	1151.288818
2908.666992	1105.034912
2907.910156	1121.273560
2907.152344	1193.395264
2906.394531	1226.046631
2905.637695	1252.113159
2904.879883	1205.882813
2904.121094	1176.095337
2903.363281	1251.425293
2902.605469	1238.060181
2901.846680	1221.416504
2901.087891	1263.868774
2900.330078	1142.196777
2899.571289	1263.405762
2898.811523	1279.579102
2898.052734	1230.139038
2897.293945	1321.747192
2896.534180	1229.688232
2895.774414	1265.527100
2895.015625	1268.573120
2894.255859	1346.997314
2893.495117	1379.518066
2892.735352	1346.503540
2891.975586	1447.799194
2891.214844	1421.333984
2890.455078	1463.640137
2889.694336	1522.299438
2888.933594	1567.844604
2888.172852	1511.923584
2887.411133	1678.516357
2886.650391	1573.524902
2885.888672	1661.546875
2885.127930	1697.213867
2884.366211	1729.598145
2883.604492	1827.349609
2882.842773	1807.404297
2882.080078	1885.498901
2881.318359	1868.817139
2880.555664	1695.346436
2879.793945	1779.950317
2879.031250	1861.257813
2878.268555	1730.325562
2877.505859	1674.517212
2876.742188	1674.209839
2875.979492	1651.061768
2875.215820	1595.298340
2874.453125	1536.293579
2873.689453	1513.183350
2872.925781	1483.560425
2872.162109	1502.847778
2871.397461	1505.831177
2870.633789	1352.392212
2869.869141	1495.503662
2869.105469	1342.122803
2868.340820	1325.591309
2867.576172	1338.373413
2866.811523	1399.987427
2866.045898	1354.157593
2865.281250	1337.635864
2864.515625	1392.708008
2863.750977	1320.877441
2862.985352	1307.623535
2862.219727	1317.139893
2861.454102	1525.000122
2860.687500	1449.946899
2859.921875	1446.429932
2859.155273	1481.911987
2858.389648	1455.645874
2857.623047	1487.864380
2856.856445	1513.574951
2856.088867	1536.028687
2855.322266	1535.746216
2854.555664	1551.694946
2853.788086	1671.497803
2853.020508	1570.594482
2852.252930	1787.682739
2851.485352	1748.427856
2850.717773	1812.971069
2849.950195	1939.100708
2849.181641	1974.406494
2848.414063	2022.665039
2847.645508	2197.299072
2846.876953	2132.089600
2846.108398	2118.738770
2845.339844	1988.786133
2844.571289	1845.927612
2843.801758	1644.839722
2843.033203	1553.893188
2842.263672	1475.926880
2841.494141	1330.031250
2840.724609	1155.070068
2839.955078	1022.226685
2839.184570	873.260742
2838.415039	850.464050
2837.644531	759.780457
2836.874023	707.920349
2836.103516	588.208984
2835.333008	575.175415
2834.562500	529.839294
2833.791992	494.210236
2833.020508	519.955505
2832.250000	471.425598
2831.478516	445.511993
2830.707031	432.518890
2829.935547	396.940460
2829.163086	367.828278
2828.391602	316.144989
2827.620117	367.692719
2826.847656	338.601929
2826.075195	312.746063
2825.302734	322.359192
2824.530273	325.522766
2823.757813	331.907593
2822.984375	260.966583
2822.211914	283.466980
2821.438477	289.855957
2820.665039	257.602234
2819.891602	228.579849
2819.118164	283.257996
2818.344727	273.551025
2817.570313	296.024139
2816.796875	205.891861
2816.022461	254.100891
2815.248047	237.974655
2814.473633	282.944672
2813.699219	257.174988
2812.924805	273.198029
2812.149414	282.788116
2811.375000	260.245575
2810.599609	279.471466
2809.824219	253.726105
2809.048828	244.045883
2808.273438	208.684937
2807.498047	253.585648
2806.721680	215.026611
2805.945313	227.821976
2805.169922	259.861603
2804.393555	221.322708
2803.617188	205.246933
2802.839844	269.336853
2802.063477	234.023346
2801.287109	221.159302
2800.509766	153.821533
2799.732422	230.689697
2798.955078	237.053955
2798.177734	246.618698
2797.400391	188.932663
2796.622070	265.737549
2795.844727	217.672455
2795.066406	272.040314
2794.288086	195.192856
2793.509766	182.359634
2792.731445	227.107742
2791.953125	230.263885
2791.174805	274.986572
2790.395508	223.784927
2789.616211	230.136246
2788.836914	239.680939
2788.057617	281.173645
2787.278320	271.537994
2786.499023	245.935989
2785.719727	229.923599
2784.939453	204.338745
2784.159180	188.339951
2783.378906	268.095428
2782.598633	223.371552
2781.818359	236.091965
2781.038086	188.200668
2780.256836	165.841095
2779.476563	248.715637
2778.695313	245.481552
2777.914063	210.373840
2777.132813	210.334915
2776.351563	191.178177
2775.569336	216.628525
2774.788086	257.995056
2774.005859	187.887543
2773.223633	241.979843
2772.441406	168.717865
2771.659180	206.879837
2770.876953	248.209854
2770.093750	181.350555
2769.311523	209.945969
2768.528320	190.824646
2767.745117	228.947174
2766.961914	273.414063
2766.178711	232.041046
2765.395508	254.244461
2764.611328	285.972046
2763.828125	171.551453
2763.043945	247.750656
2762.259766	225.474854
2761.475586	241.308655
2760.691406	212.693222
2759.907227	244.393188
2759.122070	263.388000
2758.336914	212.575027
2757.552734	231.568680
2756.767578	190.295151
2755.982422	209.285873
2755.196289	206.076675
2754.411133	199.698837
2753.625977	259.877289
2752.839844	231.311295
2752.053711	240.772598
2751.267578	228.058060
2750.481445	250.183990
2749.695313	281.800598
2748.908203	174.114136
2748.122070	212.063354
2747.334961	189.872253
2746.547852	221.476547
2745.760742	189.801834
2744.973633	256.184967
2744.185547	249.813049
2743.398438	290.867554
2742.610352	221.271225
2741.823242	262.315765
2741.035156	265.426941
2740.247070	246.422150
2739.458008	281.121826
2738.669922	277.911560
2737.880859	284.174988
2737.092773	306.220642
2736.303711	306.163818
2735.514648	293.484009
2734.725586	258.722809
2733.936523	331.229889
2733.146484	343.784332
2732.357422	381.561310
2731.567383	359.420776
2730.777344	283.700562
2729.987305	340.377441
2729.197266	280.444122
2728.406250	318.197723
2727.616211	434.684448
2726.825195	371.617645
2726.035156	387.292206
2725.244141	368.331482
2724.453125	377.705688
2723.661133	343.018921
2722.870117	298.905884
2722.078125	361.766235
2721.287109	289.359192
2720.495117	323.896301
2719.703125	326.980133
2718.911133	330.062805
2718.119141	370.858795
2717.326172	336.224701
2716.533203	326.737091
2715.741211	380.075348
2714.948242	345.458801
2714.155273	345.394592
2713.362305	291.961121
2712.568359	338.988586
2711.775391	323.234528
2710.981445	320.036804
2710.187500	329.388367
2709.393555	285.416840
2708.599609	310.450653
2707.805664	291.581207
2707.011719	373.029144
2706.216797	288.338623
2705.421875	369.756805
2704.627930	253.768890
2703.833008	253.721664
2703.037109	231.751968
2702.242188	250.496033
2701.447266	294.278076
2700.651367	253.532837
2699.855469	256.615082
2699.059570	237.794098
2698.263672	247.134689
2697.467773	309.642792
2696.671875	197.008713
2695.875000	259.502838
2695.079102	196.935349
2694.282227	221.901688
2693.485352	265.607483
2692.688477	271.806427
2691.890625	256.137665
2691.093750	246.720795
2690.295898	227.940033
2689.499023	227.897583
2688.701172	237.219025
2687.903320	230.933380
2687.104492	262.091766
2686.306641	205.890854
2685.508789	230.804306
2684.709961	193.340546
2683.911133	233.836105
2683.112305	224.440811
2682.313477	162.065933
2681.514648	211.892868
2680.714844	246.123749
2679.916016	218.043686
2679.116211	221.117355
2678.316406	230.417374
2677.516602	230.374405
2676.716797	261.457306
2675.916992	230.288483
2675.116211	227.134109
2674.316406	195.983292
2673.515625	223.939117
2672.714844	177.252060
2671.914063	205.200943
2671.113281	245.573486
2670.311523	242.419724
2669.510742	186.441910
2668.708984	242.329254
2667.907227	205.009567
2667.105469	177.020676
2666.303711	226.668381
2665.500977	254.566269
2664.699219	201.752670
2663.896484	192.405090
2663.094727	232.704636
2662.291992	179.924652
2661.489258	207.805191
2660.685547	195.362427
2659.882813	213.928421
2659.079102	173.590637
2658.276367	207.650009
2657.472656	232.400635
2656.668945	247.847702
2655.865234	213.728714
2655.060547	222.979599
2654.256836	232.227020
2653.452148	188.842697
2652.647461	222.854645
2651.843750	145.447388
2651.038086	194.924957
2650.233398	241.290558
2649.428711	225.781006
2648.623047	207.184937
2647.818359	247.338760
2647.012695	204.016327
2646.207031	207.068771
2645.401367	213.210068
2644.594727	265.690399
2643.789063	191.508423
2642.982422	191.472610
2642.175781	253.190613
2641.369141	203.749466
2640.562500	179.019073
2639.755859	178.985580
2638.949219	191.293640
2638.141602	234.445114
2637.333984	169.632477
2636.527344	206.604553
2635.719727	188.067459
2634.911133	206.527252
2634.103516	194.160919
2633.295898	249.588760
2632.487305	178.684433
2631.678711	261.816101
2630.870117	206.334076
2630.061523	169.347015
2629.252930	224.727600
2628.443359	206.218216
2627.634766	172.329224
2626.825195	166.143509
2626.015625	159.960083
2625.206055	230.668457
2624.396484	159.900177
2623.586914	205.986649
2622.776367	218.243484
2621.965820	156.737076
2621.156250	159.780426
2620.345703	193.543869
2619.535156	147.434372
2618.723633	184.258438
2617.913086	178.083115
2617.101563	181.119568
2616.291016	224.055115
2615.479492	196.395065
2614.667969	165.677277
2613.855469	217.794113
2613.043945	220.820251
2612.231445	162.517776
2611.419922	223.803268
2610.607422	183.913406
2609.794922	235.977951
2608.982422	232.869644
2608.169922	165.428986
2607.356445	150.083344
2606.542969	195.990463
2605.730469	202.077255
2604.916992	180.610931
2604.103516	156.092041
2603.289063	174.423080
2602.475586	250.877365
2601.661133	174.357651
2600.847656	269.133240
2600.033203	281.313782
2599.218750	207.888550
2598.404297	180.340042
2597.588867	177.250168
2596.774414	238.326187
2595.958984	186.348312
2595.143555	216.856506
2594.328125	186.278366
2593.512695	189.296570
2592.697266	167.892853
2591.881836	210.589661
2591.065430	167.829819
2590.249023	204.408829
2589.432617	176.917709
2588.616211	222.630463
2587.799805	243.932770
2586.983398	225.595444
2586.166016	185.928879
2585.349609	170.656738
2584.532227	191.952774
2583.714844	213.240784
2582.897461	207.109268
2582.079102	182.709137
2581.261719	173.541077
2580.443359	173.508453
2579.625000	179.562729
2578.806641	185.614700
2577.988281	149.072311
2577.169922	215.962143
2576.351563	218.962692
2575.532227	182.434616
2574.712891	240.160416
2573.893555	148.932251
2573.074219	212.720352
2572.254883	164.067703
2571.435547	167.074570
2570.615234	151.857407
2569.795898	157.901993
2568.975586	203.412384
2568.155273	194.267822
2567.334961	163.882645
2566.513672	191.160446
2565.693359	139.551208
2564.872070	145.591248
2564.050781	175.889664
2563.229492	178.888580
2562.408203	166.729156
2561.586914	148.512573
2560.765625	178.787598
2559.943359	169.664764
2559.121094	196.895248
2558.298828	139.315018
2557.476563	145.344833
2556.654297	175.591934
2555.832031	154.370728
2555.008789	145.262741
2554.186523	181.544235
2553.363281	127.057037
2552.540039	163.328278
2551.715820	133.057236
2550.892578	142.102554
2550.069336	145.098679
2549.245117	108.803505
2548.420898	166.196259
2547.596680	202.419113
2546.772461	190.298538
2545.948242	187.242630
2545.123047	205.324188
2544.298828	163.020828
2543.473633	78.476723
2542.648438	156.923859
2541.823242	190.083450
2540.998047	174.964478
2540.171875	147.786957
2539.346680	150.774582
2538.520508	120.596924
2537.694336	132.631607
2536.868164	171.785812
2536.041992	174.766632
2535.215820	159.670425
2534.388672	138.555740
2533.562500	183.702316
2532.735352	186.678604
2531.908203	159.550003
2531.081055	147.480667
2530.252930	180.554489
2529.425781	153.442368
2528.597656	162.437729
2527.769531	150.376923
2526.941406	183.425217
2526.113281	156.332977
2525.285156	174.338486
2524.457031	135.237091
2523.627930	174.272675
2522.798828	174.239777
2521.969727	150.178345
2521.140625	156.155991
2520.311523	159.128937
2519.482422	144.089569
2518.652344	168.072754
2517.822266	156.038086
2516.993164	168.009277
2516.163086	167.977539
2515.332031	152.950653
2514.501953	140.927902
2513.670898	164.884460
2512.840820	164.853317
2512.009766	155.831863
2511.178711	167.787231
2510.347656	125.816643
2509.515625	182.699158
2508.684570	104.807579
2507.852539	101.793831
2507.021484	173.615479
2506.189453	110.733765
2505.356445	164.573135
2504.524414	146.591980
2503.692383	215.359741
2502.859375	134.574387
2502.026367	116.609085
2501.193359	176.375259
2500.360352	173.353058
2499.527344	161.367142
2498.694336	182.250641
2497.860352	188.190460
2497.026367	158.289017
2496.192383	131.384888
2495.358398	188.083679
2494.524414	161.184082
2493.690430	176.075211
2492.855469	152.171814
2492.021484	187.941360
2491.186523	131.235794
2490.351563	122.264755
2489.515625	166.964157
2488.680664	134.142227
2487.845703	172.861694
2487.009766	199.647263
2486.173828	175.775497
2485.337891	178.720901
2484.501953	232.293182
2483.666016	181.630783
2482.829102	142.895508
2481.992188	145.844879
2481.156250	130.937943
2480.319336	145.789642
2479.481445	127.913612
2478.644531	130.863556
2477.807617	154.627625
2476.969727	130.813965
2476.131836	145.651596
2475.293945	205.062363
2474.456055	207.994858
2473.618164	169.335144
2472.780273	163.362595
2471.941406	139.574295
2471.102539	166.269775
2470.263672	163.269714
2469.424805	133.558990
2468.585938	166.175232
2467.746094	133.508347
2466.907227	127.550453
2466.067383	166.080719
2465.227539	163.084061
2464.387695	142.300903
2463.547852	139.309875
2462.708008	157.064331
2461.867188	139.257034
2461.026367	157.004745
2460.185547	148.089584
2459.344727	118.449188
2458.503906	148.033386
2457.663086	186.486679
2456.821289	156.855850
2455.980469	183.456924
2455.138672	180.463684
2454.296875	130.145828
2453.454102	171.523285
2452.612305	133.053146
2451.770508	150.764954
2450.927734	121.180183
2450.084961	127.067284
2449.242188	153.633575
2448.399414	177.235855
2447.555664	168.342087
2446.712891	171.262924
2445.869141	188.943893
2445.025391	141.681000
2444.181641	162.311966
2443.337891	174.083405
2442.494141	174.050339
2441.650391	156.320587
2440.805664	162.188660
2439.960938	147.416214
2439.116211	185.709137
2438.271484	167.990631
2437.426758	176.798630
2436.581055	135.519852
2435.736328	191.459045
2434.890625	164.917969
2434.044922	120.720566
2433.199219	182.518341
2432.352539	182.483643
2431.506836	155.964417
2430.660156	208.893723
2429.813477	141.197067
2428.966797	167.639633
2428.120117	167.607758
2427.273438	170.515793
2426.426758	188.119568
2425.579102	135.185226
2424.731445	205.677505
2423.883789	141.009171
2423.036133	176.227921
2422.188477	173.257813
2421.339844	179.096878
2420.492188	179.062790
2419.643555	146.744843
2418.794922	173.125961
2417.946289	176.026779
2417.097656	105.595963
2416.248047	152.498474
2415.399414	134.876816
2414.549805	205.208237
2413.700195	187.583237
2412.850586	208.060516
2412.000977	210.950775
2411.150391	155.253632
2410.300781	190.369141
2409.450195	158.122696
2408.599609	178.586060
2407.749023	125.864548
2406.898438	187.297592
2406.046875	172.632065
2405.196289	201.853271
2404.344727	190.115402
2403.493164	152.063339
2402.641602	166.653046
2401.790039	204.622635
2400.937500	137.363297
2400.085938	131.492981
2399.233398	128.546402
2398.380859	154.810455
2397.528320	175.223709
2396.675781	198.549011
2395.822266	183.914749
2394.969727	87.561745
2394.116211	154.662918
2393.262695	119.622086
2392.409180	163.355103
2391.554688	172.073425
2390.701172	160.376831
2389.846680	145.769318
2388.993164	125.337692
2388.138672	142.799423
2387.284180	136.944733
2386.428711	168.963379
2385.574219	157.280716
2384.718750	139.778397
2383.864258	183.424133
2383.008789	165.923492
2382.153320	139.698380
2381.296875	183.319107
2380.441406	162.919205
2379.584961	159.979385
2378.729492	145.408035
2377.873047	220.978012
2377.016602	130.817261
2376.159180	145.324753
2375.302734	171.450455
2374.445313	185.944626
2373.588867	148.146317
2372.731445	142.309479
2371.874023	139.378571
2371.015625	153.867767
2370.158203	150.935745
2369.299805	142.200745
2368.441406	139.272064
2367.583984	171.155869
2366.724609	185.625122
2365.866211	147.891739
2365.007813	179.755600
2364.148438	136.240295
2363.289063	220.261337
2362.429688	150.676315
2361.570313	150.647507
2360.710938	144.825668
2359.850586	150.589890
2358.991211	176.619751
2358.130859	118.688927
2357.270508	214.178070
2356.410156	133.112259
2355.549805	162.018692
2354.688477	173.558258
2353.828125	170.632965
2352.966797	208.190216
2352.105469	144.548874
2351.244141	106.945702
2350.381836	173.392273
2349.520508	118.462044
2348.658203	161.770844
2347.795898	167.516312
2346.933594	127.057014
2346.071289	170.339279
2345.208984	135.668030
2344.345703	155.844055
2343.483398	129.845184
2342.620117	138.475006
2341.756836	167.291931
2340.893555	141.305771
2340.029297	178.760803
2339.166016	115.307465
2338.301758	149.870987
2337.437500	152.723862
2336.573242	158.456665
2335.708984	155.545822
2334.844727	158.395950
2333.979492	172.762466
2333.115234	129.547028
2332.250000	164.061447
2331.384766	161.152283
2330.519531	158.244232
2329.653320	186.980057
2328.788086	267.474030
2327.921875	186.908386
2327.055664	181.122620
2326.189453	241.450531
2325.323242	195.422470
2324.456055	175.271835
2323.589844	140.765121
2322.722656	132.121506
2321.855469	140.711136
2320.988281	180.879623
2320.121094	177.974365
2319.252930	160.720200
2318.385742	172.167175
2317.517578	186.478653
2316.649414	197.916290
2315.781250	172.068085
2314.913086	149.097061
2314.043945	134.734940
2313.175781	180.567490
2312.306641	189.129639
2311.437500	209.148682
2310.568359	180.463531
2309.699219	160.381226
2308.829102	160.350433
2307.958984	180.359604
2307.089844	128.803543
2306.219727	171.705093
2305.349609	177.394516
2304.478516	185.942398
2303.608398	163.025864
2302.737305	134.399017
2301.866211	200.130280
2300.995117	122.913559
2300.124023	137.179474
2299.252930	177.156097
2298.380859	159.981216
2297.508789	179.944290
2296.637695	137.074051
2295.765625	199.861252
2294.892578	174.131332
2294.020508	168.389725
2293.147461	171.210876
2292.275391	159.766098
2291.402344	165.440216
2290.529297	202.482697
2289.655273	134.012070
2288.782227	162.494019
2287.908203	131.110306
2287.035156	202.326981
2286.161133	176.645920
2285.287109	190.854843
2284.412109	136.705521
2283.538086	173.696518
2282.663086	159.428406
2281.789063	193.554398
2280.914063	153.675385
2280.039063	167.872269
2279.163086	176.374207
2278.288086	164.963470
2277.412109	139.338867
2276.536133	150.684448
2275.660156	227.404449
2274.784180	127.890381
2273.908203	196.060822
2273.031250	153.409363
2272.155273	221.548630
2271.278320	144.830826
2270.401367	195.909851
2269.523438	147.613770
2268.646484	170.290771
2267.769531	218.497742
2266.891602	136.180145
2266.013672	204.230865
2265.135742	141.799667
2264.257813	195.645828
2263.378906	167.259125
2262.500977	189.901733
2261.622070	189.865128
2260.743164	192.661804
2259.864258	169.962936
2258.984375	169.930176
2258.105469	155.739304
2257.225586	181.188980
2256.346680	164.170853
2255.466797	149.989273
2254.585938	186.743088
2253.706055	169.733704
2252.826172	164.044266
2251.945313	178.151657
2251.064453	132.881149
2250.183594	172.429504
2249.302734	141.308395
2248.420898	135.629883
2247.540039	149.729111
2246.658203	177.945541
2245.776367	163.791275
2244.894531	152.465897
2244.012695	217.363113
2243.130859	208.854111
2242.248047	191.882950
2241.365234	155.169495
2240.482422	143.856659
2239.599609	166.390289
2238.716797	197.374084
2237.833008	174.783295
2236.950195	180.386627
2236.066406	171.897812
2235.182617	169.047150
2234.298828	163.380692
2233.415039	149.267319
2232.530273	163.317581
2231.645508	197.069351
2230.760742	149.180832
2229.875977	168.851334
2228.991211	180.073288
2228.106445	182.851593
2227.220703	185.628815
2226.335938	165.908844
2225.450195	205.237366
2224.564453	191.143066
2223.677734	185.485352
2222.791992	168.590454
2221.905273	160.129959
2221.018555	134.820221
2220.131836	196.574799
2219.245117	176.883102
2218.358398	199.305908
2217.470703	190.847610
2216.583984	179.586548
2215.696289	173.940811
2214.808594	165.492310
2213.920898	227.157364
2213.032227	179.447632
2212.144531	165.396286
2211.255859	190.589340
2210.367188	162.530045
2209.478516	229.739395
2208.589844	173.671768
2207.700195	221.248627
2206.811523	151.203964
2205.921875	198.766739
2205.032227	193.130280
2204.142578	162.309967
2203.252930	187.459702
2202.362305	173.436584
2201.472656	198.574402
2200.582031	198.535950
2199.691406	190.110275
2198.799805	148.145493
2197.909180	192.831299
2197.018555	181.617493
2196.126953	187.169464
2195.235352	150.823776
2194.343750	203.851898
2193.452148	195.436539
2192.559570	184.233032
2191.667969	192.569946
2190.775391	167.419678
2189.882813	214.813599
2188.990234	211.982727
2188.096680	214.730331
2187.204102	147.772751
2186.310547	256.461456
2185.416992	197.882980
2184.523438	228.496582
2183.629883	250.740311
2182.736328	192.196960
2181.841797	206.084305
2180.947266	247.810074
2180.053711	211.572052
2179.158203	222.664230
2178.263672	197.576172
2177.369141	186.408951
2176.473633	236.443085
2175.578125	158.525177
2174.682617	219.667709
2173.787109	186.264313
2172.891602	172.330536
2171.995117	161.181152
2171.099609	191.712769
2170.203125	147.229050
2169.306641	133.313629
2168.409180	236.030396
2167.512695	136.038162
2166.615234	205.405502
2165.718750	155.411819
2164.821289	188.677704
2163.923828	208.059998
2163.025391	188.604416
2162.127930	158.064178
2161.229492	177.441086
2160.331055	188.494537
2159.432617	138.571991
2158.534180	171.795898
2157.635742	171.762512
2156.736328	168.959320
2155.837891	163.387909
2154.938477	174.431152
2154.039063	166.092621
2153.138672	202.040070
2152.239258	146.658112
2151.338867	138.329819
2150.438477	174.261673
2149.538086	196.351959
2148.637695	165.898972
2147.737305	165.866714
2146.835938	149.251007
2145.935547	165.802200
2145.034180	140.904465
2144.132813	149.163940
2143.231445	231.987671
2142.329102	176.718124
2141.427734	168.401688
2140.525391	143.527618
2139.623047	182.134216
2138.720703	154.508057
2137.817383	212.407227
2136.915039	190.301895
2136.011719	212.324554
2135.108398	151.630875
2134.205078	148.844971
2133.301758	132.280884
2132.398438	190.116745
2131.494141	162.531952
2130.589844	195.551208
2129.685547	154.207535
2128.781250	159.683853
2127.876953	206.447525
2126.971680	184.390533
2126.067383	167.845245
2125.162109	176.065628
2124.256836	189.783768
2123.351563	186.996841
2122.445313	178.712158
2121.540039	162.184036
2120.633789	189.635895
2119.727539	167.616455
2118.821289	148.352859
2117.915039	189.525040
2117.007813	175.757080
2116.101563	172.977158
2115.194336	161.962891
2114.287109	159.186722
2113.379883	183.852249
2112.471680	181.072876
2111.564453	159.093613
2110.656250	200.199463
2109.748047	156.289642
2108.839844	183.673050
2107.931641	175.414658
2107.022461	169.899796
2106.114258	147.948380
2105.205078	172.572769
2104.295898	136.935791
2103.386719	164.290878
2102.476563	172.471756
2101.567383	158.752533
2100.657227	172.404449
2099.747070	147.746399
2098.836914	158.659592
2097.926758	150.423691
2097.015625	150.394333
2096.104492	153.098877
2095.194336	199.536346
2094.283203	172.168976
2093.371094	177.599960
2092.459961	188.492371
2091.548828	152.949448
2090.636719	202.072281
2089.724609	174.731079
2088.812500	150.130188
2087.899414	158.288177
2086.987305	150.071533
2086.074219	182.778687
2085.162109	174.560455
2084.249023	128.167770
2083.334961	149.954254
2082.421875	163.554489
2081.507813	163.522522
2080.594727	193.463821
2079.680664	168.907211
2078.766602	144.360199
2077.851563	204.243347
2076.937500	196.035278
2076.022461	144.275528
2075.107422	138.804016
2074.192383	185.035828
2073.277344	206.764297
2072.362305	165.923096
2071.446289	195.805344
2070.530273	125.073380
2069.614258	125.048912
2068.698242	184.818741
2067.782227	144.021713
2066.865234	176.595840
2065.949219	203.724548
2065.032227	122.210808
2064.115234	195.499023
2063.198242	203.604950
2062.280273	179.137283
2061.363281	138.397156
2060.445313	168.214584
2059.527344	173.606857
2058.609375	154.588333
2057.690430	187.096603
2056.772461	214.170105
2055.853516	92.156418
2054.934570	165.307068
2054.015625	149.018158
2053.096680	140.862305
2052.177734	140.834702
2051.257813	154.346252
2050.337891	197.632782
2049.417969	140.751938
2048.498047	143.430588
2047.578125	137.991058
2046.657227	173.131317
2045.736328	246.122833
2044.815430	164.951096
2043.894531	175.733093
2042.973633	148.668091
2042.051758	170.259140
2041.130859	143.205795
2040.208984	151.282104
2039.287109	159.355255
2038.365234	167.425217
2037.442383	156.592865
2036.520508	151.163452
2035.597656	148.434982
2034.674805	161.897308
2033.751953	186.145370
2032.829102	183.411621
2031.905273	145.621826
2030.981445	177.947296
2030.057617	156.347244
2029.133789	161.706787
2028.209961	185.926300
2027.286133	169.725464
2026.361328	140.063354
2025.436523	169.658829
2024.511719	158.855652
2023.586914	174.976089
2022.662109	115.730682
2021.736328	193.743561
2020.810547	131.827362
2019.885742	220.565720
2018.958984	131.775574
2018.033203	188.213837
2017.107422	169.359177
2016.180664	188.139893
2015.253906	209.600403
2014.327148	150.452774
2013.400391	185.342880
2012.472656	177.249649
2011.545898	169.159592
2010.618164	187.918167
2009.690430	169.093094
2008.762695	195.894760
2007.833984	201.222168
2006.906250	144.851471
2005.977539	193.097321
2005.048828	166.245560
2004.120117	174.255417
2003.191406	179.581802
2002.261719	233.142441
2001.333008	171.473343
2000.403320	208.942032
1999.473633	144.623718
1998.543945	163.339096
1997.613281	157.952637
1996.683594	163.274826
1995.752930	181.975464
1994.822266	139.130325
1993.891602	181.903839
1992.959961	136.401031
1992.029297	187.180252
1991.097656	141.694290
1990.166016	200.471313
1989.234375	112.241829
1988.302734	168.329590
1987.370117	138.911346
1986.438477	117.517227
1985.505859	109.483124
1984.573242	157.517853
1983.640625	125.455612
1982.707031	154.787064
1981.774414	181.438736
1980.840820	170.732224
1979.907227	189.368744
1978.973633	183.998154
1978.039063	167.965210
1977.105469	138.610626
1976.170898	143.913437
1975.236328	181.188599
1974.301758	141.192688
1973.367188	162.472763
1972.431641	165.103699
1971.496094	165.071136
1970.561523	143.743286
1969.625977	159.683273
1968.689453	154.330063
1967.753906	127.696243
1966.817383	148.949570
1965.880859	170.194489
1964.944336	207.383621
1964.007813	148.861435
1963.071289	183.382370
1962.133789	148.802704
1961.197266	164.713333
1960.259766	162.024689
1959.321289	172.615189
1958.383789	196.476974
1957.446289	164.583344
1956.507813	159.242767
1955.569336	159.211334
1954.630859	204.280869
1953.692383	198.935593
1952.752930	172.376801
1951.814453	193.554184
1950.875000	193.515961
1949.935547	177.575470
1948.995117	185.489960
1948.055664	211.946655
1947.115234	172.172638
1946.175781	185.380066
1945.235352	177.400146
1944.293945	180.012329
1943.353516	182.623489
1942.413086	164.064041
1941.471680	219.590714
1940.530273	208.966721
1939.588867	174.545288
1938.646484	203.595901
1937.705078	169.189117
1936.762695	166.512619
1935.820313	190.262512
1934.877930	200.792938
1933.935547	184.904297
1932.992188	192.790634
1932.049805	126.741371
1931.106445	182.154694
1930.163086	216.430862
1929.219727	205.832535
1928.275391	192.600037
1927.332031	189.924103
1926.387695	160.876083
1925.443359	179.301788
1924.499023	179.266296
1923.553711	197.681061
1922.609375	184.465805
1921.664063	194.968109
1920.718750	155.416779
1919.773438	205.425568
1918.828125	139.556412
1917.881836	202.711624
1916.935547	194.775192
1915.989258	178.947174
1915.042969	149.970123
1914.096680	244.639648
1913.149414	202.510986
1912.203125	178.805450
1911.255859	160.367233
1910.308594	160.335464
1909.361328	223.373993
1908.413086	189.173431
1907.465820	218.031708
1906.517578	149.702957
1905.569336	207.441925
1904.620117	186.398193
1903.671875	212.609314
1902.722656	162.705734
1901.774414	152.178421
1900.825195	191.496933
1899.875977	173.099884
1898.925781	175.687759
1897.976563	207.113159
1897.026367	186.102753
1896.076172	188.686493
1895.125977	162.447815
1894.174805	199.090073
1893.224609	165.002457
1892.273438	151.876892
1891.322266	198.971603
1890.371094	219.872360
1889.419922	193.658630
1888.467773	141.290421
1887.516602	204.045670
1886.564453	159.542496
1885.612305	169.970566
1884.659180	188.237701
1883.707031	206.497589
1882.753906	243.043839
1881.800781	164.609909
1880.847656	198.537613
1879.894531	177.603638
1878.941406	237.628265
1877.987305	127.928268
1877.033203	182.718369
1876.079102	143.535919
1875.125000	185.255005
1874.170898	169.565964
1873.215820	161.707703
1872.260742	206.005981
1871.305664	187.714966
1870.350586	203.317474
1869.395508	177.215912
1868.439453	174.575089
1867.483398	177.145462
1866.527344	158.878311
1865.571289	200.511444
1864.615234	184.850418
1863.658203	203.034729
1862.702148	163.956985
1861.745117	143.108582
1860.788086	176.899063
1859.830078	189.868576
1858.873047	150.824478
1857.915039	200.192673
1856.957031	176.758362
1855.999023	215.706253
1855.041016	176.688034
1854.082031	207.826904
1853.123047	155.839172
1852.165039	212.937805
1851.206055	158.373428
1850.246094	218.044601
1849.287109	160.905640
1848.327148	223.147263
1847.367188	223.102844
1846.407227	241.214340
1845.447266	178.929840
1844.486328	184.079559
1843.526367	202.187973
1842.565430	186.597885
1841.604492	176.196228
1840.643555	217.610825
1839.681641	150.225159
1838.720703	142.426514
1837.758789	222.658905
1836.796875	230.380157
1835.834961	147.517441
1834.872070	196.650726
1833.910156	209.546509
1832.947266	237.956009
1831.984375	232.736664
1831.021484	178.395874
1830.057617	183.530167
1829.094727	142.142914
1828.130859	124.027267
1827.166992	248.005066
1826.203125	167.886612
1825.238281	216.917892
1824.274414	216.874634
1823.309570	206.506073
1822.344727	175.495148
1821.379883	219.325180
1820.414063	208.962296
1819.449219	188.286469
1818.483398	237.245193
1817.517578	216.571960
1816.551758	195.906952
1815.585938	242.257599
1814.619141	213.865616
1813.652344	208.670563
1812.685547	195.750595
1811.718750	231.763626
1810.751953	187.948517
1809.784180	195.633362
1808.817383	187.873474
1807.849609	198.128342
1806.881836	205.806519
1805.913086	249.490555
1804.945313	174.865662
1803.976563	246.819855
1803.007813	172.225281
1802.039063	200.461014
1801.070313	172.156479
1800.100586	197.811935
1799.130859	213.183243
1798.162109	215.708603
1797.191406	249.042282
1796.221680	179.685318
1795.251953	223.278534
1794.281250	174.481674
1793.310547	264.235565
1792.339844	205.190491
1791.369141	233.357513
1790.397461	207.672287
1789.425781	205.067413
1788.455078	238.343201
1787.482422	207.547714
1786.510742	263.865906
1785.539063	248.445374
1784.566406	220.227081
1783.593750	186.899551
1782.621094	238.057251
1781.648438	189.384003
1780.674805	217.492142
1779.701172	189.308212
1778.728516	191.828018
1777.753906	214.804382
1776.780273	194.307922
1775.806641	207.049881
1774.832031	168.673538
1773.857422	222.297867
1772.882813	206.925537
1771.908203	194.113480
1770.932617	165.984848
1769.958008	206.801239
1768.982422	137.839874
1768.006836	232.239197
1767.030273	204.125427
1766.054688	219.390869
1765.078125	221.897446
1764.101563	198.902679
1763.125000	178.466629
1762.148438	221.764084
1761.170898	211.525635
1760.194336	198.743286
1759.216797	185.966034
1758.239258	264.884796
1757.260742	193.530869
1756.283203	259.686707
1755.304688	160.362579
1754.326172	188.324615
1753.347656	216.275436
1752.369141	216.232056
1751.389648	183.124542
1750.411133	205.973785
1749.431641	233.898590
1748.452148	203.349274
1747.471680	172.812210
1746.492188	223.594452
1745.511719	256.573975
1744.531250	228.584381
1743.550781	253.931671
1742.570313	266.574738
1741.588867	215.755280
1740.608398	253.778793
1739.626953	205.519562
1738.644531	205.478287
1737.663086	230.799637
1736.681641	225.681793
1735.699219	177.466888
1734.716797	228.125885
1733.734375	233.148514
1732.750977	174.826263
1731.768555	258.386902
1730.785156	202.615692
1729.801758	189.914047
1728.818359	240.509445
1727.834961	225.274109
1726.850586	179.676941
1725.867188	177.110672
1724.882813	202.371521
1723.897461	222.563919
1722.913086	230.105072
1721.927734	217.418213
1720.943359	222.429718
1719.958008	235.020508
1718.972656	260.239197
1717.986328	247.556442
1717.000977	189.418350
1716.014648	247.456879
1715.028320	244.882538
1714.041992	217.068680
1713.054688	249.831116
1712.068359	219.504395
1711.081055	214.415161
1710.093750	282.466644
1709.106445	259.716187
1708.118164	199.159698
1707.130859	272.214142
1706.142578	226.799469
1705.154297	239.351242
1704.166016	201.518372
1703.176758	234.217941
1702.188477	231.652817
1701.199219	183.774460
1700.209961	229.042587
1699.220703	254.160904
1698.230469	249.077850
1697.240234	218.842499
1696.250977	241.432739
1695.260742	208.696671
1694.269531	274.016327
1693.279297	211.125992
1692.288086	203.544754
1691.296875	236.164841
1690.305664	200.950851
1689.314453	218.490005
1688.322266	296.283020
1687.331055	238.484863
1686.338867	225.887482
1685.346680	263.482269
1684.353516	180.637131
1683.361328	235.784256
1682.368164	203.134827
1681.375000	208.108521
1680.381836	175.477814
1679.388672	238.100433
1678.394531	212.994263
1677.401367	240.509689
1676.407227	225.432358
1675.412109	255.438446
1674.417969	232.852768
1673.422852	237.812363
1672.428711	240.267151
1671.433594	240.218658
1670.438477	220.155991
1669.442383	227.615356
1668.447266	210.064072
1667.451172	237.524506
1666.455078	257.474579
1665.458984	207.437622
1664.461914	219.889450
1663.465820	214.848572
1662.468750	259.764404
1661.471680	302.164856
1660.473633	184.757706
1659.476563	192.209045
1658.478516	229.605972
1657.480469	234.550003
1656.482422	207.060822
1655.484375	246.926254
1654.486328	256.851166
1653.487305	264.278839
1652.488281	231.820419
1651.489258	226.789185
1650.490234	196.843109
1649.490234	236.662216
1648.490234	199.254211
1647.490234	234.076355
1646.490234	226.560013
1645.490234	238.960037
1644.489258	278.730316
1643.489258	238.863388
1642.488281	296.031189
1641.487305	248.715378
1640.485352	241.205109
1639.484375	216.294830
1638.482422	253.535736
1637.480469	241.058731
1636.478516	270.825623
1635.475586	250.897720
1634.473633	186.272476
1633.470703	250.796158
1632.467773	230.884369
1631.463867	253.176758
1630.460938	263.051971
1629.457031	245.630890
1628.453125	267.906708
1627.449219	270.332581
1626.445313	218.205948
1625.441406	290.055969
1624.436523	213.160339
1623.431641	245.332550
1622.426758	255.193268
1621.420898	257.618683
1620.416016	262.519684
1619.410156	250.085983
1618.404297	240.132919
1617.398438	242.559341
1616.392578	254.883148
1615.385742	259.779663
1614.378906	230.043930
1613.372070	286.878326
1612.365234	249.731354
1611.358398	252.152817
1610.350586	269.402771
1609.342773	259.463806
1608.334961	209.999527
1607.327148	266.768829
1606.318359	254.366806
1605.310547	276.536926
1604.301758	261.669342
1603.292969	234.467407
1602.283203	301.044403
1601.274414	283.713806
1600.264648	300.922241
1599.254883	221.946777
1598.245117	271.213226
1597.235352	251.437576
1596.224609	303.142578
1595.213867	241.479202
1594.203125	307.946655
1593.192383	241.381165
1592.181641	241.332138
1591.169922	273.290070
1590.158203	290.465576
1589.146484	297.789825
1588.134766	278.044739
1587.123047	246.007309
1586.110352	300.067932
1585.097656	250.825516
1584.084961	263.067413
1583.072266	270.388184
1582.058594	270.333221
1581.045898	233.422165
1580.032227	248.114182
1579.017578	275.080597
1578.003906	265.202362
1576.990234	294.609375
1575.975586	250.367065
1574.960938	304.305908
1573.946289	291.976135
1572.930664	245.308197
1571.916016	264.878967
1570.900391	289.345947
1569.884766	252.513306
1568.868164	274.521729
1567.852539	306.323517
1566.835938	264.609680
1565.819336	249.858276
1564.802734	279.196564
1563.786133	264.448181
1562.768555	318.252472
1561.751953	283.921326
1560.734375	293.651917
1559.716797	259.339722
1558.698242	264.179138
1557.680664	281.244598
1556.662109	276.297119
1555.643555	322.688416
1554.625000	285.961029
1553.605469	317.669769
1552.585938	317.605072
1551.567383	283.343719
1550.547852	241.769943
1549.527344	288.111542
1548.507813	295.376221
1547.487305	256.265961
1546.466797	319.657166
1545.446289	268.359711
1544.425781	278.061554
1543.404297	263.373047
1542.382813	312.082214
1541.361328	277.891541
1540.339844	297.332092
1539.318359	392.300873
1538.295898	297.210846
1537.273438	333.685120
1536.250977	357.968658
1535.228516	367.634308
1534.205078	338.349304
1533.182617	321.244598
1532.159180	362.543030
1531.135742	374.632477
1530.111328	313.751465
1529.087891	374.479614
1528.063477	335.504150
1527.039063	345.158447
1526.014648	320.786041
1524.989258	371.744293
1523.964844	284.217010
1522.939453	342.448029
1521.914063	347.234528
1520.888672	325.314178
1519.862305	383.501068
1518.835938	366.435669
1517.809570	346.950989
1516.783203	356.583069
1515.756836	295.879242
1514.729492	370.985870
1513.703125	383.031342
1512.675781	399.919373
1511.647461	344.102692
1510.620117	368.260010
1509.591797	414.207855
1508.564453	385.061951
1507.535156	343.821503
1506.506836	387.325317
1505.478516	421.130188
1504.449219	423.463898
1503.419922	433.054504
1502.390625	365.239441
1501.361328	365.164764
1500.331055	411.028564
1499.300781	410.944519
1498.270508	451.946503
1497.240234	444.605072
1496.209961	420.355743
1495.178711	432.346466
1494.147461	516.777710
1493.116211	468.384888
1492.084961	547.946472
1491.052734	543.007568
1490.020508	586.328186
1488.988281	586.208130
1487.956055	590.911926
1486.923828	641.430176
1485.890625	614.778992
1484.857422	585.728271
1483.824219	650.675964
1482.791016	619.220276
1481.757813	657.636230
1480.723633	751.430359
1479.689453	797.027222
1478.655273	895.569214
1477.621094	912.234375
1476.585938	924.079773
1475.550781	1005.693237
1474.515625	1024.730957
1473.480469	1115.910156
1472.445313	1250.332642
1471.409180	1375.084106
1470.373047	1290.679688
1469.336914	1374.520386
1468.300781	1362.226074
1467.263672	1460.429688
1466.227539	1592.214355
1465.190430	1579.882690
1464.153320	1627.569702
1463.115234	1704.037598
1462.078125	1770.875732
1461.040039	1712.934937
1460.001953	1854.099487
1458.963867	1832.136353
1457.924805	1903.688232
1456.885742	1975.210693
1455.847656	1958.029053
1454.807617	1993.568970
1453.768555	1985.973022
1452.728516	1940.057861
1451.689453	1827.111450
1450.649414	1850.677979
1449.609375	1871.840942
1448.568359	1881.029297
1447.527344	1801.684692
1446.487305	1837.197510
1445.445313	1858.345459
1444.404297	1905.787842
1443.363281	1931.694214
1442.321289	2127.295410
1441.279297	2136.417480
1440.237305	2124.032227
1439.194336	2228.700684
1438.152344	2309.443359
1437.109375	2569.235352
1436.066406	2575.869141
1435.023438	2673.197754
1433.979492	2560.492676
1432.935547	2474.077393
1431.891602	2320.908691
1430.847656	2225.038818
1429.803711	1852.625610
1428.758789	1635.315063
1427.713867	1444.310669
1426.668945	1205.727539
1425.624023	998.213379
1424.579102	917.024109
1423.533203	873.970398
1422.487305	807.125366
1421.441406	709.362488
1420.394531	633.059021
1419.348633	556.786987
1418.301758	592.356506
1417.254883	547.044006
1416.208008	499.372162
1415.160156	499.269379
1414.113281	501.543579
1413.065430	537.087769
1412.017578	506.089111
1410.968750	479.854218
1409.920898	444.130005
1408.872070	463.034851
1407.823242	451.069244
1406.774414	386.890228
1405.724609	448.510376
1404.675781	467.398621
1403.625977	398.511627
1402.575195	426.888763
1401.525391	412.574127
1400.475586	372.188446
1399.424805	523.800598
1398.374023	511.844391
1397.323242	459.617340
1396.271484	445.310547
1395.219727	485.477905
1394.168945	471.171631
1393.116211	475.808899
1392.064453	482.810944
1391.012695	373.864685
1389.959961	463.685883
1388.907227	409.189331
1387.854492	397.281097
1386.800781	413.749115
1385.747070	397.117188
1384.693359	394.671967
1383.639648	373.325165
1382.585938	406.320770
1381.531250	356.638214
1380.477539	462.825592
1379.422852	396.625763
1378.367188	382.381622
1377.312500	412.981293
1376.256836	453.005920
1375.201172	450.553467
1374.145508	422.159271
1373.089844	525.821655
1372.033203	528.070496
1370.977539	513.819641
1369.920898	544.347778
1368.863281	506.539398
1367.806641	461.680054
1366.749023	480.424835
1365.691406	494.452820
1364.633789	428.437225
1363.576172	369.509583
1362.517578	418.847839
1361.458984	432.876831
1360.400391	432.787354
1359.341797	378.610657
1358.283203	359.723328
1357.223633	350.246338
1356.164063	411.278107
1355.104492	439.389160
1354.043945	411.108032
1352.984375	401.628204
1351.923828	359.277222
1350.863281	424.939362
1349.802734	387.295532
1348.741211	375.481598
1347.679688	366.018829
1346.618164	326.064667
1345.556641	422.154633
1344.495117	358.757202
1343.432617	433.701599
1342.370117	407.829498
1341.307617	377.281372
1340.245117	407.660675
1339.181641	381.809937
1338.119141	381.730896
1337.055664	393.358948
1335.992188	372.209076
1334.927734	374.472443
1333.863281	313.555695
1332.799805	393.033173
1331.734375	390.612762
1330.669922	420.932526
1329.605469	376.422760
1328.540039	437.120941
1327.474609	383.277954
1326.409180	453.295807
1325.342773	439.185303
1324.276367	448.436707
1323.209961	497.381348
1322.143555	464.593292
1321.077148	543.858276
1320.009766	511.074097
1318.943359	499.302185
1317.875000	517.860291
1316.807617	566.729492
1315.740234	629.568848
1314.671875	645.757019
1313.603516	680.584595
1312.535156	687.434265
1311.465820	745.536682
1310.397461	861.847961
1309.328125	866.326782
1308.258789	949.967651
1307.189453	998.655762
1306.119141	1077.579590
1305.048828	1105.278687
1303.978516	1191.126831
1302.908203	1423.473145
1301.837891	1483.639404
1300.766602	1776.277710
1299.695313	2215.237061
1298.624023	2770.214355
1297.551758	3029.873535
1296.480469	3263.871094
1295.408203	3244.612549
1294.335938	2923.492188
1293.263672	2630.364258
1292.190430	2300.219971
1291.117188	1905.235352
1290.043945	1593.939941
1288.970703	1382.519287
1287.897461	1266.272949
1286.823242	1052.689331
1285.749023	943.514343
1284.674805	896.963501
1283.600586	822.624878
1282.525391	755.267456
1281.450195	792.171082
1280.375000	754.953369
1279.299805	757.111694
1278.224609	694.453430
1277.148438	645.707336
1276.072266	724.244995
1274.996094	687.079895
1273.919922	626.801025
1272.842773	737.667603
1271.765625	672.779358
1270.688477	732.737671
1269.611328	741.829163
1268.533203	716.259094
1267.455078	748.450439
1266.376953	759.842346
1265.298828	727.357178
1264.220703	757.217407
1263.141602	738.594849
1262.062500	784.593567
1260.983398	650.615601
1259.903320	673.546753
1258.824219	666.487915
1257.744141	576.426514
1256.664063	617.800476
1255.583984	592.319580
1254.502930	516.155396
1253.421875	527.566772
1252.340820	536.670044
1251.259766	469.776245
1250.178711	462.771301
1249.096680	455.769226
1248.014648	384.331299
1246.932617	473.986450
1245.849609	441.681671
1244.767578	388.690826
1243.684570	446.096405
1242.601563	455.199310
1241.518555	482.686462
1240.434570	443.519287
1239.350586	418.153748
1238.266602	422.660645
1237.182617	399.606567
1236.098633	463.814270
1235.013672	477.491241
1233.928711	417.717651
1232.843750	429.103821
1231.757813	456.544586
1230.672852	444.980713
1229.586914	401.316315
1228.500977	444.794922
1227.414063	456.163452
1226.328125	414.815796
1225.241211	455.972931
1224.154297	394.024963
1223.067383	400.813751
1221.979492	444.237854
1220.892578	391.488678
1219.804688	437.185486
1218.715820	427.940308
1217.627930	409.547119
1216.539063	404.886536
1215.450195	434.533142
1214.361328	315.542328
1213.272461	404.632721
1212.182617	395.405792
1211.093750	413.603973
1210.003906	404.378998
1208.913086	397.441986
1207.823242	372.238495
1206.732422	422.390930
1205.641602	486.218628
1204.550781	467.859039
1203.458984	399.308319
1202.368164	479.069733
1201.276367	451.599823
1200.184570	522.195557
1199.091797	526.645996
1198.000000	542.491394
1196.907227	446.664124
1195.814453	457.962738
1194.720703	412.307983
1193.627930	412.221680
1192.534180	434.905273
1191.440430	389.283936
1190.346680	391.478455
1189.251953	380.018677
1188.157227	361.738434
1187.062500	395.781769
1185.967773	402.521271
1184.873047	368.332123
1183.777344	350.069519
1182.681641	374.995911
1181.585938	349.922852
1180.490234	413.458527
1179.393555	345.233673
1178.296875	338.348907
1177.200195	324.656067
1176.103516	351.826172
1175.005859	403.947937
1173.909180	365.292023
1172.811523	362.947021
1171.712891	303.904388
1170.615234	351.457489
1169.516602	360.451752
1168.417969	387.574341
1167.319336	439.612000
1166.219727	439.519775
1165.121094	414.511566
1164.021484	421.218445
1162.921875	412.073517
1161.821289	387.086731
1160.721680	430.006104
1159.621094	398.237854
1158.520508	418.514404
1157.418945	370.929504
1156.318359	411.554840
1155.216797	363.991333
1154.115234	391.038971
1153.013672	433.894348
1151.911133	408.949921
1150.808594	429.194275
1149.706055	415.553467
1148.603516	460.625549
1147.500977	392.803955
1146.397461	410.777588
1145.293945	419.717468
1144.190430	392.556427
1143.085938	376.684753
1141.982422	412.687561
1140.877930	453.184509
1139.773438	446.326721
1138.667969	473.277344
1137.563477	506.976257
1136.458008	578.957764
1135.352539	702.711487
1134.247070	824.161255
1133.140625	1026.607910
1132.034180	1321.254639
1130.927734	1703.542480
1129.821289	2004.672363
1128.713867	1988.504639
1127.607422	2033.065552
1126.500000	1742.582153
1125.391602	1587.102173
1124.284180	1308.072388
1123.175781	1092.078003
1122.067383	981.764648
1120.958984	810.852234
1119.850586	768.014099
1118.741211	653.348145
1117.631836	606.071655
1116.522461	547.593872
1115.413086	504.847015
1114.302734	468.848053
1113.192383	495.663116
1112.082031	475.377594
1110.971680	432.681854
1109.860352	457.246124
1108.749023	470.595367
1107.637695	450.332092
1106.526367	423.357361
1105.415039	474.776947
1104.302734	485.872101
1103.190430	492.485413
1102.078125	492.381592
1100.964844	601.921509
1099.851563	610.743225
1098.738281	612.851135
1097.625000	737.949707
1096.511719	766.858704
1095.397461	820.343445
1094.283203	905.092712
1093.168945	1041.195679
1092.053711	1081.185303
1090.939453	1255.161133
1089.824219	1522.845703
1088.708984	1750.233276
1087.592773	2133.762695
1086.477539	2724.659424
1085.361328	3228.296387
1084.245117	3678.187500
1083.127930	4130.118164
1082.011719	4069.046875
1080.894531	3637.962891
1079.777344	2993.108398
1078.660156	2379.720459
1077.541992	1884.661377
1076.423828	1797.400146
1075.305664	1676.773804
1074.187500	1631.893188
1073.068359	1542.514404
1071.950195	1493.230225
1070.831055	1379.444214
1069.710938	1292.399658
1068.591797	1352.173706
1067.471680	1527.544434
1066.351563	1718.402100
1065.231445	2091.428955
1064.111328	2422.078369
1062.990234	2508.209473
1061.869141	2549.880859
1060.748047	2200.694824
1059.625977	1787.270142
1058.504883	1598.214111
1057.382813	1340.440552
1056.260742	1151.558716
1055.137695	978.285156
1054.014648	891.581482
1052.892578	798.262207
1051.768555	778.140991
1050.645508	687.101624
1049.521484	720.195984
1048.398438	576.034851
1047.273438	593.633362
1046.149414	609.009766
1045.025391	642.092529
1043.900391	586.615479
1042.775391	657.312866
1041.649414	623.983093
1040.524414	597.304077
1039.398438	634.777649
1038.272461	561.670288
1037.146484	574.816284
1036.019531	568.063477
1034.892578	563.523315
1033.765625	545.728516
1032.638672	510.269531
1031.510742	554.331177
1030.383789	571.877930
1029.255859	554.096252
1028.126953	505.422882
1026.999023	500.902527
1025.870117	525.063965
1024.741211	485.250366
1023.612305	520.430908
1022.482422	434.335388
1021.353516	506.984528
1020.223633	423.132111
1019.092773	458.295868
1017.962891	416.343994
1016.832031	431.672516
1015.701172	422.773163
1014.570313	416.079041
1013.439453	446.804871
1012.307617	433.506805
1011.175781	393.813446
1010.043945	404.727905
1008.911133	395.845428
1007.779297	329.801147
1006.646484	353.911407
1005.513672	367.022705
1004.379883	382.325684
1003.246094	375.654083
1002.113281	395.341370
1000.978516	379.886292
999.844727	373.219360
998.709961	377.529968
997.575195	390.616608
996.440430	403.697662
995.305664	379.482910
994.169922	403.526123
993.034180	438.522125
991.898438	403.354614
990.762695	412.035583
989.625977	394.418274
988.489258	429.386383
987.352539	392.060303
986.215820	374.458435
985.078125	418.165771
983.940430	435.587921
982.802734	407.045837
981.665039	461.658081
980.526367	417.810120
979.387695	402.412079
978.249023	422.005493
977.110352	400.054779
975.970703	356.257111
974.831055	345.255493
973.691406	373.583069
972.551758	336.371613
971.411133	325.381165
970.271484	301.295593
969.129883	316.511292
967.989258	381.915039
966.848633	338.195587
965.707031	290.131836
964.565430	344.594482
963.422852	298.730316
962.281250	292.126526
961.138672	350.913086
959.996094	339.942719
958.852539	348.584900
957.709961	350.688812
956.566406	339.725433
955.422852	370.134735
954.279297	367.879028
953.134766	391.740295
951.990234	365.546326
950.845703	341.538910
949.701172	321.891602
948.555664	297.903687
947.410156	273.925995
946.264648	339.074127
945.119141	269.462982
943.972656	304.167511
942.827148	260.659393
941.679688	267.118866
940.533203	303.972870
939.385742	284.371063
938.239258	282.140076
937.091797	308.118011
935.943359	297.205322
934.795898	273.283783
933.647461	292.741547
932.499023	299.183014
931.349609	309.956787
930.201172	307.723541
929.051758	348.823303
927.902344	335.751984
926.751953	344.342987
925.602539	391.904175
924.452148	322.548340
923.301758	309.493683
922.151367	350.540314
921.000000	318.014923
919.848633	326.598572
918.697266	307.066803
917.545898	319.973053
916.393555	259.382141
915.241211	276.615143
914.088867	339.213226
912.936523	311.058990
911.783203	285.076447
910.629883	291.493103
909.476563	330.288208
908.323242	280.577026
907.168945	291.306122
906.014648	310.660065
904.860352	327.848785
903.706055	357.968781
902.550781	327.708527
901.395508	364.282166
900.240234	387.909790
899.083984	424.454865
897.928711	407.130951
896.772461	452.270905
895.616211	486.625427
894.458984	566.172974
893.302734	660.752380
892.145508	692.888306
890.988281	823.973267
889.830078	776.476868
888.671875	858.027466
887.513672	780.444214
886.355469	748.034180
885.197266	586.694214
884.038086	547.893677
882.878906	564.961365
881.719727	517.591309
880.559570	532.510925
879.400391	523.809753
878.240234	465.747345
877.080078	521.439331
875.918945	604.997437
874.757813	602.722778
873.596680	688.372009
872.435547	718.240356
871.274414	760.957153
870.112305	812.227905
868.950195	786.342224
867.787109	824.732422
866.625000	792.429993
865.461914	832.943542
864.298828	867.017395
863.135742	789.779663
861.971680	710.435120
860.807617	712.422058
859.643555	596.766052
858.479492	620.161255
857.315430	624.304199
856.150391	532.254700
854.985352	574.882568
853.819336	611.082214
852.654297	642.993835
851.488281	617.226929
850.322266	706.775879
849.155273	774.938171
847.989258	789.712219
846.822266	902.639160
845.655273	977.115601
844.487305	1030.230103
843.320313	1149.430054
842.152344	1136.390625
840.984375	1244.858276
839.815430	1278.689087
838.646484	1327.420044
837.477539	1446.427612
836.308594	1286.383545
835.139648	1277.589600
833.969727	1132.552490
832.799805	1030.145752
831.629883	912.887329
830.458984	857.376343
829.289063	772.110779
828.118164	706.020996
826.946289	646.337952
825.775391	627.067993
824.603516	514.297607
823.431641	533.309570
822.259766	486.460571
821.086914	439.631714
819.914063	443.783783
818.741211	520.113037
817.568359	430.858002
816.394531	424.399231
815.221680	409.457031
814.047852	436.942932
812.873047	428.366302
811.699219	396.471497
810.524414	438.780304
809.349609	425.970245
808.173828	408.928070
806.998047	394.011566
805.823242	410.869720
804.646484	438.307739
803.470703	459.382996
802.293945	433.885773
801.117188	522.666748
799.940430	463.317139
798.763672	467.447540
797.585938	444.085144
796.408203	524.330261
795.230469	450.234924
794.051758	450.137817
792.873047	483.846588
791.694336	441.493988
790.515625	375.928101
789.335938	384.292969
788.157227	377.876923
786.976563	379.905945
785.796875	400.925293
784.617188	400.838745
783.436523	390.206116
782.255859	390.121857
781.074219	377.387756
779.893555	301.423462
778.711914	320.324982
777.529297	370.822479
776.347656	353.890472
775.165039	450.691681
773.982422	421.116180
772.799805	435.761078
771.617188	416.724915
770.433594	389.280029
769.250000	393.403442
768.066406	441.694489
766.881836	410.056244
765.697266	407.865204
764.512695	376.247864
763.328125	407.688873
762.142578	306.751068
760.958008	317.187622
759.772461	367.522064
758.585938	302.352753
757.400391	302.287354
756.213867	319.012085
755.026367	337.827850
753.839844	306.286926
752.652344	346.071289
751.464844	341.802521
750.277344	341.728546
749.089844	362.614990
747.901367	320.624786
746.712891	316.365112
745.524414	364.474243
744.334961	320.416595
743.146484	297.315704
741.956055	307.717926
740.766602	336.951416
739.577148	299.215027
738.386719	334.713531
737.196289	288.627869
736.004883	296.929565
734.814453	248.781433
733.623047	313.522095
732.431641	321.812927
731.239258	273.690643
730.046875	348.827728
728.855469	336.222107
727.662109	292.303650
726.469727	302.677460
725.276367	325.568604
724.083008	365.141998
722.889648	312.910980
721.695313	291.986908
720.500977	316.945618
719.306641	329.385162
718.112305	314.723877
716.916992	260.476471
715.722656	252.086533
714.526367	281.192535
713.331055	276.966614
712.134766	243.594452
710.938477	249.786240
709.742188	218.515518
708.545898	272.564941
707.348633	239.222626
706.151367	264.127625
704.954102	251.594513
703.755859	226.593781
702.557617	261.877197
701.359375	243.118881
700.161133	249.298538
698.961914	230.551056
697.763672	222.194626
696.563477	271.973572
695.364258	211.719666
694.164063	261.479218
692.963867	244.824158
691.763672	253.068268
690.563477	267.530426
689.362305	244.664551
688.161133	217.662643
686.959961	256.993347
685.757813	271.441986
684.555664	227.878815
683.353516	248.541016
682.151367	236.062607
680.948242	246.362640
679.746094	233.890106
678.541992	211.076111
677.338867	289.649261
676.134766	244.079834
674.930664	250.230789
673.726563	208.824875
672.522461	212.913666
671.317383	223.200684
670.112305	225.218323
668.907227	216.906204
667.701172	225.120270
666.495117	245.719986
665.289063	253.924179
664.083008	220.845276
662.875977	216.670135
661.668945	249.632141
660.461914	216.575745
659.254883	175.285019
658.046875	226.790024
656.838867	189.637604
655.630859	199.900421
654.421875	257.547485
653.212891	222.472534
652.003906	247.137817
650.794922	214.139420
649.584961	255.264404
648.375977	255.208755
647.165039	240.749298
645.955078	273.612610
644.744141	263.268982
643.533203	279.662292
642.322266	296.048401
641.111328	271.318512
639.899414	310.304199
638.687500	355.436523
637.475586	388.224548
636.262695	499.036896
635.049805	560.524048
633.836914	578.876465
632.624023	556.174744
631.410156	566.312622
630.196289	545.674866
628.982422	541.453796
627.767578	506.476868
626.553711	465.364929
625.338867	403.774750
624.123047	364.752319
622.908203	346.234131
621.692383	372.786072
620.476563	329.700256
619.259766	272.301575
618.043945	284.523651
616.827148	302.879852
615.610352	290.537415
614.392578	300.701874
613.175781	237.236679
611.957031	286.257538
610.739258	290.283447
609.521484	261.606720
608.302734	304.459991
607.083984	355.466125
605.864258	390.110229
604.645508	400.234985
603.425781	489.976440
602.206055	551.102905
600.985352	671.382141
599.764648	663.074341
598.543945	654.770081
597.323242	681.138184
596.101563	699.339111
594.880859	782.762146
593.659180	827.426758
592.436523	825.208069
591.214844	700.763977
589.992188	625.254150
588.768555	496.835846
587.545898	427.510986
586.322266	415.205414
585.098633	394.765717
583.875000	486.228546
582.650391	498.325897
581.425781	518.552124
580.201172	496.074463
578.976563	483.769867
577.750977	485.696045
576.525391	434.795685
575.299805	361.573212
574.073242	428.512482
572.847656	359.384277
571.621094	355.245514
570.393555	302.399841
569.166992	275.955444
567.939453	330.668182
566.711914	273.806213
565.483398	287.940399
564.255859	289.904510
563.027344	263.491730
561.797852	228.984879
560.569336	239.064468
559.339844	206.603607
558.110352	222.758896
556.879883	226.759277
555.650391	224.685303
554.419922	222.612228
553.189453	192.213806
551.958008	214.423050
550.726563	248.757004
549.495117	224.438721
548.263672	240.561646
547.032227	238.487717
545.799805	250.559158
544.567383	264.645477
543.333984	244.389816
542.100586	238.278198
540.867188	270.527618
539.633789	258.357666
538.400391	244.175049
537.166016	254.209030
535.931641	231.965164
534.696289	209.731079
533.461914	227.830780
532.226563	247.938248
530.991211	213.623383
529.754883	269.992798
528.519531	261.875702
527.282227	271.888000
526.045898	267.801117
524.809570	239.558807
523.572266	271.708588
522.334961	231.404526
521.096680	219.282974
519.858398	245.381973
518.620117	251.360611
517.381836	247.284393
516.143555	241.199951
514.904297	261.242432
513.665039	261.184906
512.424805	255.101364
511.185547	240.987564
509.945313	313.214844
508.705078	303.109131
507.463867	274.945709
506.222656	308.994965
504.981445	302.908813
503.740234	276.769562
502.498047	258.662354
501.255859	262.614746
500.013672	270.573853
498.771484	282.537079
497.528320	328.552216
496.285156	300.438843
495.041992	290.360168
493.797852	298.304291
492.553711	264.211304
491.309570	300.173889
490.065430	242.086868
488.820313	282.039001
487.575195	225.981384
486.330078	237.927887
485.083984	243.872238
483.837891	243.818420
482.591797	285.724091
481.345703	281.665771
480.098633	275.612030
478.851563	289.528412
477.604492	249.538361
476.357422	279.421265
475.109375	235.460190
473.861328	305.232666
472.612305	287.214355
471.364258	261.227570
470.115234	324.967072
468.865234	332.868164
467.616211	346.744110
466.366211	314.790009
465.116211	312.728546
463.866211	342.531372
462.615234	322.545441
461.364258	312.521240
460.113281	360.215546
458.862305	280.547852
457.610352	280.485840
456.358398	246.613846
455.105469	284.338562
453.853516	284.275665
452.600586	290.175293
451.347656	264.279297
450.093750	268.194092
448.840820	278.065674
447.585938	293.890106
446.332031	268.016113
445.078125	263.987061
443.823242	305.601563
442.568359	325.373810
441.312500	289.597931
440.056641	362.908813
438.800781	360.845795
437.544922	418.250580
436.288086	414.194366
435.032227	416.083984
433.774414	477.400146
432.517578	526.806274
431.259766	546.489929
430.001953	564.185242
428.744141	635.309937
427.485352	708.381836
426.226563	763.616699
424.967773	814.871399
423.708984	773.165283
422.449219	743.339417
421.189453	762.939880
419.929688	754.866394
418.668945	730.991211
417.408203	707.126526
416.147461	612.180481
414.886719	560.711914
413.625000	495.448853
412.363281	442.055481
411.101563	414.335052
409.838867	406.352783
408.576172	487.120728
407.313477	496.871185
406.049805	589.410767
404.787109	577.454895
403.523438	634.468323
402.258789	618.567749
400.995117	517.984741
399.730469	441.075348
398.465820	446.883362
397.200195	419.229126
395.934570	391.587189
394.668945	363.957489
393.403320	373.711121
392.136719	330.365906
390.871094	359.782898
389.603516	375.427704
388.336914	343.901825
387.069336	345.790100
385.801758	381.070282
384.534180	302.431854
383.265625	349.486389
381.997070	351.371643
380.728516	361.106201
379.458984	325.708160
378.190430	290.325806
376.919922	323.602081
375.650391	335.294830
374.379883	341.101288
373.109375	299.867188
371.838867	331.152130
370.568359	319.324188
369.296875	331.004791
368.025391	336.805634
366.752930	321.068787
365.481445	332.741119
364.208984	305.270935
362.935547	338.462280
361.663086	326.650970
360.389648	312.889313
359.116211	349.966980
357.841797	345.979675
356.568359	271.641022
355.293945	347.779358
354.018555	355.515411
352.744141	308.565491
351.468750	384.644684
350.193359	370.894440
348.916992	357.150299
347.640625	403.899658
346.364258	351.138794
345.087891	376.414886
343.810547	337.332947
342.534180	333.358795
341.255859	352.774780
339.978516	317.621368
338.700195	344.824829
337.421875	354.486542
336.143555	352.460175
334.864258	379.637604
333.584961	326.999420
332.305664	301.628571
331.025391	301.561279
329.745117	334.561066
328.464844	367.546082
327.184570	344.132996
325.903320	332.393250
324.622070	308.998413
323.340820	336.130768
322.058594	279.722656
320.776367	312.675659
319.494141	316.489105
318.210938	366.890076
316.928711	364.867340
315.645508	304.634979
314.361328	351.124939
313.078125	331.651642
311.793945	325.760376
310.508789	354.766846
309.224609	395.389404
307.939453	335.230774
306.654297	339.030457
305.368164	371.881714
304.083008	365.989197
302.796875	369.779419
301.509766	383.245819
300.223633	394.771027
298.936523	390.813293
297.649414	429.411591
296.361328	402.241577
295.073242	415.685547
293.785156	409.793579
292.497070	456.083221
291.208008	419.270813
289.918945	426.903717
288.629883	345.695313
287.339844	393.888580
286.050781	366.774902
284.759766	401.432098
283.469727	459.228088
282.178711	343.379395
280.887695	368.375153
279.596680	401.072632
278.304688	400.982788
277.012695	371.982422
275.720703	398.876221
274.428711	414.198883
273.135742	365.954224
271.842773	398.608124
270.548828	427.396973
269.255859	425.376404
267.961914	419.507996
266.666992	415.566132
265.373047	384.697174
264.078125	384.610931
262.783203	403.750916
261.487305	405.582550
260.191406	399.726288
258.895508	464.961853
257.599609	437.964966
256.302734	403.298279
255.005859	445.448608
253.708984	487.580017
252.411133	416.461090
251.114258	429.798828
249.815430	446.967194
248.517578	437.277435
247.218750	454.436371
245.919922	473.504547
244.621094	473.398224
243.321289	461.794952
242.021484	463.606995
240.721680	488.401764
239.420898	472.973114
238.120117	449.893555
236.819336	484.244690
235.518555	528.148254
234.216797	535.682129
232.915039	522.172729
231.613281	531.616821
230.310547	563.998962
229.007813	558.137878
227.705078	559.923401
226.401367	575.082092
225.097656	553.941223
223.793945	576.733215
222.490234	609.061340
221.185547	658.554565
219.880859	601.153687
218.576172	665.890259
217.270508	650.479919
215.964844	652.240723
214.659180	697.854919
213.352539	691.979065
212.045898	720.411072
210.739258	714.532654
209.432617	750.566650
208.125000	824.675598
206.817383	820.681641
205.509766	820.496887
204.201172	812.698975
202.892578	833.447266
201.583984	878.917603
200.274414	861.601746
198.964844	787.246704
197.655273	872.620361
196.345703	819.203979
195.035156	851.324097
193.724609	830.233948
192.413086	864.236389
191.102539	845.051636
189.791016	850.556885
188.478516	799.115417
187.166992	884.332153
185.854492	844.289856
184.541992	889.623901
183.228516	847.701904
181.915039	879.742676
180.601563	923.142334
179.288086	975.998047
177.973633	970.093689
176.659180	935.777649
175.344727	1011.320862
174.029297	958.076538
172.713867	965.432312
171.398438	946.288635
170.082031	1038.790405
168.765625	1004.504822
167.449219	977.799866
166.132813	971.906494
164.815430	979.248779
163.498047	1052.738159
162.180664	1082.733765
160.862305	986.142029
159.543945	1163.460205
158.225586	1123.542969
156.906250	1085.531494
155.586914	1157.009399
154.267578	1254.873413
152.947266	1239.496948
151.627930	1226.013550
150.307617	1182.364136
148.986328	1274.477661
147.665039	1219.527466
146.343750	1238.096436
145.022461	1258.540894
143.700195	1169.726318
142.377930	1079.068481
141.055664	1093.886475
139.733398	1133.168213
138.410156	1132.911743
137.085938	1151.470337
135.762695	1111.707520
134.438477	1004.259583
133.114258	1002.152100
131.790039	1114.712280
130.464844	1099.425049
129.139648	1157.423096
127.814453	1051.964600
126.488281	1143.752441
125.162109	1203.578491
123.835938	1216.446533
122.508789	1287.489624
121.181641	1270.310547
119.854492	1238.131470
118.527344	1279.112671
117.199219	1333.200928
115.871094	1436.006226
114.541992	1390.698608
113.213867	1454.093750
111.884766	1438.776855
110.554688	1607.019165
109.225586	1595.419434
107.895508	1645.605225
106.564453	1834.274658
105.234375	1852.571533
103.903320	1665.065308
102.572266	1526.275391
101.240234	1451.128784
