#Wave	#Intensity
402	1134
404	1470
406	1693
408	2110
410	2513
412	2952
414	3100
416	2710
418	2479
420	2367
422	2621
424	2829
426	3306
428	3692
430	4289
432	4354
434	4011
436	3561
438	2952
440	2477
442	1966
444	1522
446	1127
448	1202
450	1182
452	1137
454	1193
456	1211
458	1237
460	1311
462	1179
464	1130
466	1161
468	1028
470	1014
472	1072
474	1096
476	1068
478	1144
480	1129
482	1211
484	1145
486	1111
488	1094
490	1104
492	1025
494	858
496	900
498	945
500	1043
502	1091
504	1060
506	1128
508	1117
510	1103
512	1011
514	1029
516	1082
518	1194
520	1277
522	1372
524	1463
526	1431
528	1432
530	1381
532	1270
534	1186
536	1192
538	1178
540	1244
542	1347
544	1397
546	1473
548	1478
550	1436
552	1549
554	1657
556	1677
558	1681
560	1731
562	1924
564	2035
566	2007
568	1883
570	1897
572	1969
574	1963
576	1836
578	1741
580	1800
582	1834
584	1854
586	1819
588	1755
590	1668
592	1631
594	1637
596	1645
598	1610
600	1731
602	1690
604	1565
606	1375
608	1314
610	1339
612	1280
614	1237
616	1291
618	1403
620	1364
622	1353
624	1288
626	1328
628	1263
630	1053
632	1174
634	1177
636	1089
638	910
640	1035
642	1138
644	1426
646	1801
648	2244
650	2760
652	3067
654	3152
656	2762
658	2271
660	1819
662	1336
664	1340
666	1197
668	1255
670	1461
672	1608
674	1472
676	1418
678	1298
680	1152
682	1295
684	1105
686	977
688	977
690	935
692	793
694	942
696	938
698	946
700	958
702	1005
704	983
706	1021
708	1010
710	1100
712	1249
714	1334
716	1343
718	1256
720	1392
722	1354
724	1374
726	1287
728	1261
730	1087
732	1064
734	852
736	766
738	906
740	1054
742	1205
744	1232
746	1109
748	898
750	732
752	737
754	823
756	829
758	1004
760	1048
762	1068
764	1063
766	968
768	973
770	1086
772	1132
774	1236
776	1204
778	1032
780	996
782	909
784	1047
786	1074
788	1408
790	1530
792	1543
794	1539
796	1443
798	1297
800	1109
802	1128
804	1090
806	1147
808	1082
810	977
812	968
814	971
816	1103
818	1320
820	1457
822	1445
824	1313
826	1280
828	1134
830	943
832	995
834	975
836	1115
838	1072
840	1085
842	1037
844	1042
846	1102
848	1453
850	2088
852	2706
854	3203
856	3860
858	4262
860	4178
862	3643
864	3162
866	2600
868	2018
870	1788
872	1882
874	2418
876	3076
878	3702
880	4256
882	4788
884	4460
886	3799
888	2955
890	2034
892	1261
894	700
896	347
898	479
900	746
902	962
904	1148
906	1151
908	1107
910	947
912	866
914	674
916	543
918	643
920	690
922	691
924	541
926	439
928	419
930	517
932	471
934	625
936	813
938	780
940	721
942	646
944	481
946	515
948	494
950	337
952	340
954	464
956	597
958	541
960	649
962	784
964	821
966	834
968	736
970	654
972	643
974	892
976	982
978	1048
980	1276
982	1136
984	1104
986	1121
988	996
990	770
992	869
994	973
996	934
998	1130
1000	957
1002	805
1004	907
1006	891
1008	1096
1010	1635
1012	2262
1014	2825
1016	3282
1018	3123
1020	2718
1022	2103
1024	1459
1026	1246
1028	864
1030	640
1032	599
1034	600
1036	578
1038	612
1040	572
1042	694
1044	809
1046	761
1048	438
1050	468
1052	498
1054	358
1056	492
1058	526
1060	660
1062	820
1064	973
1066	1145
1068	1264
1070	1242
1072	1009
1074	985
1076	931
1078	914
1080	846
1082	817
1084	683
1086	568
1088	650
1090	870
1092	971
1094	957
1096	870
1098	727
1100	609
1102	556
1104	724
1106	787
1108	971
1110	1054
1112	965
1114	936
1116	974
1118	1222
1120	1348
1122	1451
1124	1165
1126	1146
1128	1029
1130	901
1132	1013
1134	1027
1136	1198
1138	1148
1140	989
1142	851
1144	1047
1146	1036
1148	1175
1150	1306
1152	1408
1154	1642
1156	1739
1158	1736
1160	1796
1162	1797
1164	1644
1166	1577
1168	1359
1170	936
1172	1020
1174	1035
1176	860
1178	1005
1180	811
1182	1055
1184	1236
1186	969
1188	877
1190	1161
1192	1200
1194	1108
1196	1072
1198	792
1200	725
1202	669
1204	531
1206	735
1208	1102
1210	1529
1212	1745
1214	2016
1216	2112
1218	1954
1220	1758
1222	1362
1224	1113
1226	874
1228	766
1230	534
1232	682
1234	812
1236	873
1238	823
1240	859
1242	1056
1244	838
1246	790
1248	597
1250	502
1252	560
1254	778
1256	870
1258	1034
1260	1057
1262	1249
1264	1515
1266	1518
1268	1540
1270	1634
1272	1518
1274	1295
1276	916
1278	800
1280	749
1282	692
1284	507
1286	854
1288	1242
1290	1407
1292	1278
1294	1339
1296	1355
1298	1248
1300	1083
1302	1281
1304	1771
1306	2038
1308	1939
1310	2007
1312	2061
1314	1905
1316	2064
1318	1861
1320	1887
1322	1955
1324	1949
1326	2141
1328	2421
1330	2388
1332	2476
1334	2619
1336	2463
1338	2481
1340	2579
1342	2959
1344	3448
1346	3823
1348	3912
1350	3767
1352	3705
1354	3603
1356	3403
1358	2867
1360	2769
1362	2544
1364	2642
1366	2785
1368	2897
1370	3216
1372	3275
1374	3343
1376	3759
1378	3904
1380	3679
1382	3423
1384	3442
1386	3272
1388	2893
1390	2741
1392	2755
1394	2839
1396	2850
1398	2967
1400	2876
1402	2833
1404	2772
1406	2759
1408	3113
1410	3089
1412	3084
1414	2969
1416	3149
1418	3101
1420	3083
1422	3173
1424	3249
1426	3346
1428	3157
1430	2756
1432	2740
1434	2741
1436	2745
1438	2702
1440	2771
1442	2639
1444	2572
1446	1981
1448	1959
1450	2371
1452	2432
1454	2433
1456	2758
1458	2854
1460	2603
1462	2668
1464	2404
1466	2257
1468	2282
1470	1857
1472	1774
1474	2108
1476	2125
1478	2327
1480	2858
1482	3068
1484	2913
1486	2779
1488	2438
1490	2172
1492	1829
1494	1816
1496	1856
1498	1882
1500	1863
1502	1644
1504	1572
1506	1535
1508	1492
1510	1429
1512	1849
1514	2179
1516	2186
1518	2271
1520	1982
1522	1860
1524	1603
1526	1770
1528	2032
1530	2123
1532	2538
1534	2596
1536	2586
1538	2122
1540	1741
1542	1668
1544	1258
1546	1518
1548	1682
1550	1935
1552	2037
1554	1997
1556	1953
1558	2069
1560	1962
1562	1534
1564	1733
1566	1761
1568	1401
1570	1313
1572	1237
1574	895
1576	1206
1578	1430
1580	1388
1582	1532
1584	1333
1586	1689
1588	2001
1590	2163
1592	1866
1594	2504
1596	2249
1598	2194
1600	2165
1602	2089
1604	2680
1606	2802
1608	2866
1610	2378
1612	2306
1614	1938
1616	2284
1618	2325
1620	2690
1622	3031
1624	3170
1626	3014
1628	2730
1630	2309
1632	1873
1634	1934
1636	1524
1638	1682
1640	1928
1642	1857
1644	2307
1646	2607
1648	2696
1650	2570
1652	2393
1654	2446
1656	2310
1658	2362
1660	2255
1662	2469
1664	2340
1666	2286
1668	2039
1670	1948
1672	1624
1674	1415
1676	1281
1678	1300
1680	1149
1682	1516
1684	1752
1686	1732
1688	1723
1690	1752
1692	1488
1694	1089
1696	1021
1698	717
1700	1106
1702	984
1704	1197
1706	1245
1708	1668
1710	1871
1712	1685
1714	1943
1716	1732
1718	1627
1720	1112
1722	1021
1724	452
1726	823
1728	697
1730	375
1732	861
1734	961
1736	1307
1738	1151
1740	1502
1742	1227
1744	1518
1746	1342
1748	903
1750	750
1752	560
1754	667
1756	344
1758	236
1760	386
1762	597
1764	731
1766	822
1768	1150
1770	1250
1772	1249
1774	1009
1776	718
1778	687
1780	887
1782	1526
1784	2834
1786	4413
1788	5817
1790	6669
1792	6525
1794	5529
1796	3824
1798	2288
1800	938
1802	229
1804	192
1806	654
1808	665
1810	651
1812	625
1814	517
1816	515
1818	401
1820	420
1822	453
1824	528
1826	429
1828	298
1830	142
1832	0
1834	179
1836	97
1838	241
1840	546
1842	778
1844	859
1846	650
1848	868
1850	1036
1852	1108
1854	855
1856	952
1858	923
1860	846
1862	568
1864	456
1866	531
1868	571
1870	787
1872	975
1874	1193
1876	1299
1878	1286
1880	927
1882	1032
1884	853
1886	790
1888	933
1890	1033
1892	1092
1894	1097
1896	1021
1898	688
1900	793
1902	950
1904	857
1906	1187
1908	1304
1910	1654
1912	1710
1914	1582
1916	1254
1918	1159
1920	1058
1922	624
1924	649
1926	532
1928	840
1930	829
1932	916
1934	898
1936	1100
1938	1097
1940	1022
1942	1097
1944	1173
1946	1379
1948	1349
1950	1203
1952	1032
1954	826
1956	678
1958	610
1960	640
1962	735
1964	896
1966	1126
1968	1208
1970	1259
1972	1266
1974	1307
1976	1169
1978	1038
1980	857
1982	845
1984	974
1986	996
1988	1054
1990	1114
1992	1103
1994	1107
1996	1232
1998	1339
2000	1399
2002	1386
2004	1371
2006	1252
2008	1036
2010	825
2012	647
2014	769
2016	948
2018	1058
2020	1137
2022	1227
2024	1262
2026	1218
2028	1199
2030	1137
2032	1178
2034	1040
2036	1018
2038	1031
2040	984
2042	982
2044	1039
2046	1222
2048	1265
2050	1372
2052	1397
2054	1417
2056	1455
2058	1285
2060	1157
2062	1127
2064	1058
2066	1033
2068	1149
2070	1441
2072	1491
2074	1605
2076	1660
2078	1516
2080	1357
2082	1288
2084	1256
2086	1281
2088	1389
2090	1358
2092	1555
2094	1527
2096	1375
2098	1490
2100	1686
2102	1739
2104	1655
2106	1692
2108	1608
2110	1580
2112	1322
2114	1362
2116	1331
2118	1487
2120	1556
2122	1639
2124	1817
2126	1724
2128	1517
2130	1318
2132	1394
2134	1382
2136	1288
2138	1319
2140	1399
2142	1400
2144	1257
2146	1210
2148	1121
2150	1182
2152	1284
2154	1198
2156	1274
2158	1352
2160	1426
2162	1527
2164	1691
2166	1755
2168	1746
2170	1759
2172	1869
2174	1922
2176	2041
2178	1962
2180	1845
2182	1780
2184	1685
2186	1527
2188	1369
2190	1420
2192	1258
2194	1631
2196	1598
2198	1720
2200	1888
2202	1877
2204	2070
2206	2024
2208	1963
2210	1810
2212	1880
2214	1706
2216	1295
2218	1058
2220	925
2222	1101
2224	1085
2226	1340
2228	1400
2230	1545
2232	1480
2234	1184
2236	1011
2238	1083
2240	1029
2242	1047
2244	1276
2246	1314
2248	1503
2250	1581
2252	1464
2254	1452
2256	1486
2258	1571
2260	1779
2262	1781
2264	1475
2266	1616
2268	1418
2270	1280
2272	1226
2274	1240
2276	1334
2278	1439
2280	1286
2282	1329
2284	1476
2286	1552
2288	1805
2290	1861
2292	1927
2294	1761
2296	1544
2298	1411